'Id: "" Comment: "" Operator: "Lab Manager" Anode: "Cu" Scantype: "Unlocked Coupled" TimePerStep: "1" 
0.300000011920929 807287.625
0.30500001180917 819954.1875
0.310000011697412 831057.5
0.315000011585653 851007.9375
0.320000011473894 853357.0625
0.325000011362135 862060.5625
0.330000011250377 874600.375
0.335000011138618 893342.4375
0.340000011026859 895615.5
0.345000010915101 908611.625
0.350000010803342 917103.875
0.355000010691583 937747.1875
0.360000010579824 933387
0.365000010468066 952526.25
0.370000010356307 959252.4375
0.375000010244548 978645.1875
0.38000001013279 981594.25
0.385000010021031 997057.75
0.390000009909272 1000226.5
0.395000009797513 1017058.875
0.400000009685755 1011380.5
0.405000009573996 1025694.8125
0.410000009462237 1038251.5
0.415000009350479 1048222.5
0.42000000923872 1041707.5625
0.425000009126961 1057847
0.430000009015203 1065105.625
0.435000008903444 1083197
0.440000008791685 1080957.75
0.445000008679926 1150113.75
0.450000008568168 1171493.125
0.455000008456409 1180332.875
0.46000000834465 1177290.625
0.465000008232892 1173183.75
0.470000008121133 1192142.25
0.475000008009374 1197409.125
0.480000007897615 1180683.25
0.485000007785857 1206423.25
0.490000007674098 1210444.25
0.495000007562339 1222867.875
0.500000007450581 1200468
0.505000007338822 1231432.5
0.510000007227063 1213732.125
0.515000007115304 1225808.75
0.520000007003546 1223637.125
0.525000006891787 1232406.25
0.530000006780028 1245749
0.53500000666827 1268075.25
0.540000006556511 1225488.875
0.545000006444752 1234147.875
0.550000006332994 1230772.375
0.555000006221235 1248147.125
0.560000006109476 1219881.5
0.565000005997717 1231338
0.570000005885959 1211682.5
0.5750000057742 1200117.125
0.580000005662441 1191594.625
0.585000005550683 1195685.75
0.590000005438924 1181807.25
0.595000005327165 1152610.5
0.600000005215406 1143840.375
0.605000005103648 1097518.75
0.610000004991889 1061215.75
0.61500000488013 973397.75
0.620000004768372 928545.125
0.625000004656613 887258.4375
0.630000004544854 843394.5
0.635000004433095 798448.9375
0.640000004321337 743211.3125
0.645000004209578 690762.125
0.650000004097819 642529.5625
0.655000003986061 598243.125
0.660000003874302 547196.625
0.665000003762543 507760.5
0.670000003650784 468425.75
0.675000003539026 436657.5625
0.680000003427267 399740.4375
0.685000003315508 371173.4375
0.69000000320375 350273.5625
0.695000003091991 329231.09375
0.700000002980232 305792.40625
0.705000002868474 291165.34375
0.710000002756715 272139.3125
0.715000002644956 256869.90625
0.720000002533197 241857.203125
0.725000002421439 228083.953125
0.73000000230968 218689.546875
0.735000002197921 210329.59375
0.740000002086163 196304.703125
0.745000001974404 184886.796875
0.750000001862645 180152.046875
0.755000001750886 171984.703125
0.760000001639128 163294.15625
0.765000001527369 156531.40625
0.77000000141561 149811.703125
0.775000001303852 144045.09375
0.780000001192093 136981.796875
0.785000001080334 130317.296875
0.790000000968575 127539.8984375
0.795000000856817 120352
0.800000000745058 114801
0.805000000633299 111295
0.810000000521541 107522
0.815000000409782 104584
0.820000000298023 99828
0.825000000186265 97103
0.830000000074506 93058
0.834999999962747 91067
0.839999999850988 86978
0.84499999973923 85001
0.849999999627471 81835
0.854999999515712 80223
0.859999999403954 76072
0.864999999292195 74605
0.869999999180436 72273
0.874999999068677 70668
0.879999998956919 68139
0.88499999884516 66779
0.889999998733401 64423
0.894999998621643 63021
0.899999998509884 60487
0.904999998398125 59465
0.909999998286366 58322
0.914999998174608 56238
0.919999998062849 53958
0.92499999795109 52758
0.929999997839332 51361
0.934999997727573 50843
0.939999997615814 48415
0.944999997504056 47669
0.949999997392297 46255
0.954999997280538 45724
0.959999997168779 43816
0.964999997057021 42915
0.969999996945262 41873
0.974999996833503 41019
0.979999996721745 40148
0.984999996609986 38506
0.989999996498227 37994
0.994999996386468 37171
0.99999999627471 35766
1.00499999616295 35047
1.00999999605119 34028
1.01499999593943 33628
1.01999999582767 32578
1.02499999571592 31807
1.02999999560416 31104
1.0349999954924 30326
1.03999999538064 29477
1.04499999526888 28784
1.04999999515712 28225
1.05499999504536 28065
1.05999999493361 26891
1.06499999482185 26391
1.06999999471009 25323
1.07499999459833 25302
1.07999999448657 24600
1.08499999437481 24113
1.08999999426305 23792
1.09499999415129 23148
1.09999999403954 22359
1.10499999392778 22256
1.10999999381602 21530
1.11499999370426 21330
1.1199999935925 20718
1.12499999348074 20213
1.12999999336898 20055
1.13499999325722 19649
1.13999999314547 19068
1.14499999303371 18720
1.14999999292195 18178
1.15499999281019 18035
1.15999999269843 17716
1.16499999258667 17003
1.16999999247491 16920
1.17499999236315 16666
1.1799999922514 16152
1.18499999213964 15947
1.18999999202788 15695
1.19499999191612 15312
1.19999999180436 14864
1.2049999916926 14697
1.20999999158084 14173
1.21499999146909 13820
1.21999999135733 13668
1.22499999124557 13229
1.22999999113381 13287
1.23499999102205 12908
1.23999999091029 12722
1.24499999079853 12295
1.24999999068677 12169
1.25499999057502 11879
1.25999999046326 11616
1.2649999903515 11311
1.26999999023974 11201
1.27499999012798 11219
1.27999999001622 10813
1.28499998990446 10787
1.2899999897927 10895
1.29499998968095 10402
1.29999998956919 10167
1.30499998945743 9999
1.30999998934567 9643
1.31499998923391 9727
1.31999998912215 9546
1.32499998901039 9255
1.32999998889863 9238
1.33499998878688 9088
1.33999998867512 8909
1.34499998856336 8818
1.3499999884516 8482
1.35499998833984 8492
1.35999998822808 8200
1.36499998811632 8205
1.36999998800457 7838
1.37499998789281 7875
1.37999998778105 7514
1.38499998766929 7446
1.38999998755753 7345
1.39499998744577 7240
1.39999998733401 7033
1.40499998722225 7057
1.4099999871105 6867
1.41499998699874 6952
1.41999998688698 6740
1.42499998677522 6602
1.42999998666346 6498
1.4349999865517 6460
1.43999998643994 6255
1.44499998632818 6111
1.44999998621643 6109
1.45499998610467 6052
1.45999998599291 5994
1.46499998588115 5745
1.46999998576939 5586
1.47499998565763 5606
1.47999998554587 5431
1.48499998543411 5410
1.48999998532236 5203
1.4949999852106 5212
1.49999998509884 5076
1.50499998498708 5004
1.50999998487532 5014
1.51499998476356 4872
1.5199999846518 4813
1.52499998454005 4856
1.52999998442829 4659
1.53499998431653 4702
1.53999998420477 4477
1.54499998409301 4430
1.54999998398125 4424
1.55499998386949 4541
1.55999998375773 4256
1.56499998364598 4220
1.56999998353422 4294
1.57499998342246 4143
1.5799999833107 3973
1.58499998319894 3868
1.58999998308718 3975
1.59499998297542 3945
1.59999998286366 3724
1.60499998275191 3615
1.60999998264015 3765
1.61499998252839 3634
1.61999998241663 3608
1.62499998230487 3541
1.62999998219311 3532
1.63499998208135 3473
1.63999998196959 3259
1.64499998185784 3317
1.64999998174608 3226
1.65499998163432 3277
1.65999998152256 3240
1.6649999814108 3109
1.66999998129904 3138
1.67499998118728 3155
1.67999998107553 2988
1.68499998096377 2952
1.68999998085201 3014
1.69499998074025 3001
1.69999998062849 2833
1.70499998051673 2798
1.70999998040497 2852
1.71499998029321 2828
1.71999998018146 2674
1.7249999800697 2720
1.72999997995794 2521
1.73499997984618 2577
1.73999997973442 2577
1.74499997962266 2550
1.7499999795109 2520
1.75499997939914 2566
1.75999997928739 2403
1.76499997917563 2386
1.76999997906387 2427
1.77499997895211 2360
1.77999997884035 2168
1.78499997872859 2313
1.78999997861683 2224
1.79499997850507 2233
1.79999997839332 2222
1.80499997828156 2124
1.8099999781698 2146
1.81499997805804 2025
1.81999997794628 2033
1.82499997783452 2066
1.82999997772276 2007
1.83499997761101 1992
1.83999997749925 1940
1.84499997738749 1889
1.84999997727573 1866
1.85499997716397 1921
1.85999997705221 1813
1.86499997694045 1847
1.86999997682869 1828
1.87499997671694 1788
1.87999997660518 1722
1.88499997649342 1806
1.88999997638166 1717
1.8949999762699 1748
1.89999997615814 1704
1.90499997604638 1667
1.90999997593462 1648
1.91499997582287 1579
1.91999997571111 1559
1.92499997559935 1607
1.92999997548759 1518
1.93499997537583 1531
1.93999997526407 1450
1.94499997515231 1495
1.94999997504056 1520
1.9549999749288 1395
1.95999997481704 1411
1.96499997470528 1415
1.96999997459352 1460
1.97499997448176 1460
1.97999997437 1400
1.98499997425824 1376
1.98999997414649 1408
1.99499997403473 1342
1.99999997392297 1280
2.00499997381121 1332
2.00999997369945 1328
2.01499997358769 1284
2.01999997347593 1246
2.02499997336417 1241
2.02999997325242 1192
2.03499997314066 1266
2.0399999730289 1187
2.04499997291714 1189
2.04999997280538 1195
2.05499997269362 1160
2.05999997258186 1139
2.0649999724701 1134
2.06999997235835 1084
2.07499997224659 1099
2.07999997213483 1081
2.08499997202307 1044
2.08999997191131 1135
2.09499997179955 1063
2.09999997168779 980
2.10499997157604 1018
2.10999997146428 969
2.11499997135252 977
2.11999997124076 956
2.124999971129 1024
2.12999997101724 989
2.13499997090548 1010
2.13999997079372 957
2.14499997068197 933
2.14999997057021 881
2.15499997045845 926
2.15999997034669 906
2.16499997023493 923
2.16999997012317 894
2.17499997001141 884
2.17999996989965 858
2.1849999697879 794
2.18999996967614 843
2.19499996956438 863
2.19999996945262 799
2.20499996934086 826
2.2099999692291 857
2.21499996911734 810
2.21999996900558 769
2.22499996889383 789
2.22999996878207 709
2.23499996867031 779
2.23999996855855 734
2.24499996844679 683
2.24999996833503 709
2.25499996822327 702
2.25999996811152 697
2.26499996799976 643
2.269999967888 660
2.27499996777624 731
2.27999996766448 681
2.28499996755272 674
2.28999996744096 679
2.2949999673292 621
2.29999996721745 652
2.30499996710569 645
2.30999996699393 608
2.31499996688217 576
2.31999996677041 587
2.32499996665865 600
2.32999996654689 570
2.33499996643513 574
2.33999996632338 532
2.34499996621162 587
2.34999996609986 535
2.3549999659881 583
2.35999996587634 547
2.36499996576458 546
2.36999996565282 545
2.37499996554106 549
2.37999996542931 526
2.38499996531755 560
2.38999996520579 577
2.39499996509403 550
2.39999996498227 536
2.40499996487051 510
2.40999996475875 532
2.414999964647 505
2.41999996453524 470
2.42499996442348 479
2.42999996431172 492
2.43499996419996 476
2.4399999640882 489
2.44499996397644 457
2.44999996386468 443
2.45499996375293 447
2.45999996364117 475
2.46499996352941 479
2.46999996341765 436
2.47499996330589 464
2.47999996319413 473
2.48499996308237 425
2.48999996297061 430
2.49499996285886 441
2.4999999627471 447
2.50499996263534 462
2.50999996252358 427
2.51499996241182 422
2.51999996230006 382
2.5249999621883 407
2.52999996207654 417
2.53499996196479 402
2.53999996185303 411
2.54499996174127 378
2.54999996162951 395
2.55499996151775 406
2.55999996140599 386
2.56499996129423 333
2.56999996118248 391
2.57499996107072 372
2.57999996095896 335
2.5849999608472 359
2.58999996073544 365
2.59499996062368 335
2.59999996051192 357
2.60499996040016 343
2.60999996028841 320
2.61499996017665 323
2.61999996006489 309
2.62499995995313 325
2.62999995984137 333
2.63499995972961 332
2.63999995961785 296
2.64499995950609 328
2.64999995939434 310
2.65499995928258 305
2.65999995917082 304
2.66499995905906 296
2.6699999589473 297
2.67499995883554 335
2.67999995872378 308
2.68499995861202 295
2.68999995850027 294
2.69499995838851 269
2.69999995827675 258
2.70499995816499 281
2.70999995805323 287
2.71499995794147 289
2.71999995782971 281
2.72499995771796 278
2.7299999576062 277
2.73499995749444 317
2.73999995738268 230
2.74499995727092 225
2.74999995715916 263
2.7549999570474 269
2.75999995693564 269
2.76499995682389 233
2.76999995671213 266
2.77499995660037 276
2.77999995648861 239
2.78499995637685 225
2.78999995626509 254
2.79499995615333 228
2.79999995604157 203
2.80499995592982 243
2.80999995581806 254
2.8149999557063 224
2.81999995559454 242
2.82499995548278 233
2.82999995537102 220
2.83499995525926 225
2.8399999551475 226
2.84499995503575 241
2.84999995492399 260
2.85499995481223 239
2.85999995470047 220
2.86499995458871 230
2.86999995447695 232
2.87499995436519 209
2.87999995425344 215
2.88499995414168 216
2.88999995402992 182
2.89499995391816 196
2.8999999538064 213
2.90499995369464 194
2.90999995358288 210
2.91499995347112 216
2.91999995335937 180
2.92499995324761 204
2.92999995313585 218
2.93499995302409 206
2.93999995291233 206
2.94499995280057 177
2.94999995268881 160
2.95499995257705 175
2.9599999524653 208
2.96499995235354 192
2.96999995224178 197
2.97499995213002 186
2.97999995201826 182
2.9849999519065 182
2.98999995179474 203
2.99499995168298 193
2.99999995157123 184
3.00499995145947 177
3.00999995134771 185
3.01499995123595 151
3.01999995112419 180
3.02499995101243 167
3.02999995090067 169
3.03499995078892 159
3.03999995067716 145
3.0449999505654 176
3.04999995045364 152
3.05499995034188 139
3.05999995023012 170
3.06499995011836 174
3.0699999500066 156
3.07499994989485 182
3.07999994978309 156
3.08499994967133 175
3.08999994955957 149
3.09499994944781 163
3.09999994933605 173
3.10499994922429 143
3.10999994911253 163
3.11499994900078 152
3.11999994888902 144
3.12499994877726 158
3.1299999486655 153
3.13499994855374 125
3.13999994844198 122
3.14499994833022 119
3.14999994821846 134
3.15499994810671 147
3.15999994799495 144
3.16499994788319 158
3.16999994777143 141
3.17499994765967 139
3.17999994754791 135
3.18499994743615 137
3.1899999473244 156
3.19499994721264 104
3.19999994710088 146
3.20499994698912 130
3.20999994687736 138
3.2149999467656 130
3.21999994665384 114
3.22499994654208 143
3.22999994643033 122
3.23499994631857 153
3.23999994620681 148
3.24499994609505 132
3.24999994598329 119
3.25499994587153 119
3.25999994575977 134
3.26499994564801 122
3.26999994553626 117
3.2749999454245 124
3.27999994531274 128
3.28499994520098 149
3.28999994508922 117
3.29499994497746 112
3.2999999448657 112
3.30499994475394 126
3.30999994464219 110
3.31499994453043 115
3.31999994441867 108
3.32499994430691 114
3.32999994419515 118
3.33499994408339 99
3.33999994397163 109
3.34499994385988 103
3.34999994374812 90
3.35499994363636 112
3.3599999435246 113
3.36499994341284 90
3.36999994330108 89
3.37499994318932 95
3.37999994307756 104
3.38499994296581 114
3.38999994285405 99
3.39499994274229 103
3.39999994263053 111
3.40499994251877 112
3.40999994240701 103
3.41499994229525 95
3.41999994218349 103
3.42499994207174 107
3.42999994195998 77
3.43499994184822 105
3.43999994173646 116
3.4449999416247 99
3.44999994151294 120
3.45499994140118 107
3.45999994128942 119
3.46499994117767 93
3.46999994106591 107
3.47499994095415 108
3.47999994084239 107
3.48499994073063 101
3.48999994061887 95
3.49499994050711 106
3.49999994039536 115
3.5049999402836 98
3.50999994017184 93
3.51499994006008 97
3.51999993994832 107
3.52499993983656 108
3.5299999397248 93
3.53499993961304 110
3.53999993950129 93
3.54499993938953 83
3.54999993927777 103
3.55499993916601 95
3.55999993905425 101
3.56499993894249 78
3.56999993883073 99
3.57499993871897 94
3.57999993860722 100
3.58499993849546 104
3.5899999383837 107
3.59499993827194 95
3.59999993816018 88
3.60499993804842 95
3.60999993793666 101
3.6149999378249 101
3.61999993771315 85
3.62499993760139 87
3.62999993748963 100
3.63499993737787 87
3.63999993726611 82
3.64499993715435 107
3.64999993704259 94
3.65499993693084 86
3.65999993681908 86
3.66499993670732 97
3.66999993659556 75
3.6749999364838 102
3.67999993637204 79
3.68499993626028 74
3.68999993614852 77
3.69499993603677 89
3.69999993592501 114
3.70499993581325 79
3.70999993570149 86
3.71499993558973 91
3.71999993547797 91
3.72499993536621 76
3.72999993525445 91
3.7349999351427 90
3.73999993503094 105
3.74499993491918 85
3.74999993480742 98
3.75499993469566 101
3.7599999345839 80
3.76499993447214 98
3.76999993436038 92
3.77499993424863 90
3.77999993413687 71
3.78499993402511 63
3.78999993391335 78
3.79499993380159 83
3.79999993368983 80
3.80499993357807 74
3.80999993346632 82
3.81499993335456 95
3.8199999332428 96
3.82499993313104 65
3.82999993301928 85
3.83499993290752 69
3.83999993279576 80
3.844999932684 81
3.84999993257225 89
3.85499993246049 77
3.85999993234873 86
3.86499993223697 95
3.86999993212521 89
3.87499993201345 85
3.87999993190169 94
3.88499993178993 80
3.88999993167818 80
3.89499993156642 73
3.89999993145466 82
3.9049999313429 104
3.90999993123114 80
3.91499993111938 99
3.91999993100762 85
3.92499993089587 93
3.92999993078411 76
3.93499993067235 97
3.93999993056059 80
3.94499993044883 69
3.94999993033707 75
3.95499993022531 78
3.95999993011355 96
3.9649999300018 83
3.96999992989004 76
3.97499992977828 77
3.97999992966652 84
3.98499992955476 55
3.989999929443 81
3.99499992933124 76
3.99999992921948 86
4.00499992910773 88
4.00999992899597 76
4.01499992888421 97
4.01999992877245 65
4.02499992866069 55
4.02999992854893 90
4.03499992843717 77
4.03999992832541 62
4.04499992821366 81
4.0499999281019 91
4.05499992799014 89
4.05999992787838 97
4.06499992776662 87
4.06999992765486 86
4.0749999275431 70
4.07999992743135 78
4.08499992731959 75
4.08999992720783 81
4.09499992709607 74
4.09999992698431 78
4.10499992687255 80
4.10999992676079 76
4.11499992664903 80
4.11999992653728 89
4.12499992642552 76
4.12999992631376 81
4.134999926202 93
4.13999992609024 69
4.14499992597848 77
4.14999992586672 81
4.15499992575496 89
4.15999992564321 65
4.16499992553145 83
4.16999992541969 93
4.17499992530793 80
4.17999992519617 90
4.18499992508441 86
4.18999992497265 64
4.19499992486089 87
4.19999992474914 88
4.20499992463738 87
4.20999992452562 63
4.21499992441386 86
4.2199999243021 85
4.22499992419034 79
4.22999992407858 87
4.23499992396683 88
4.23999992385507 85
4.24499992374331 75
4.24999992363155 96
4.25499992351979 103
4.25999992340803 86
4.26499992329627 90
4.26999992318451 91
4.27499992307276 91
4.279999922961 97
4.28499992284924 80
4.28999992273748 69
4.29499992262572 89
4.29999992251396 102
4.3049999224022 97
4.30999992229044 89
4.31499992217869 88
4.31999992206693 85
4.32499992195517 86
4.32999992184341 93
4.33499992173165 86
4.33999992161989 92
4.34499992150813 76
4.34999992139637 90
4.35499992128462 96
4.35999992117286 85
4.3649999210611 86
4.36999992094934 83
4.37499992083758 81
4.37999992072582 90
4.38499992061406 82
4.38999992050231 75
4.39499992039055 94
4.39999992027879 82
4.40499992016703 79
4.40999992005527 75
4.41499991994351 87
4.41999991983175 98
4.42499991971999 80
4.42999991960824 100
4.43499991949648 89
4.43999991938472 90
4.44499991927296 98
4.4499999191612 121
4.45499991904944 99
4.45999991893768 91
4.46499991882592 86
4.46999991871417 100
4.47499991860241 91
4.47999991849065 107
4.48499991837889 87
4.48999991826713 95
4.49499991815537 93
4.49999991804361 117
4.50499991793185 98
4.5099999178201 78
4.51499991770834 90
4.51999991759658 108
4.52499991748482 96
4.52999991737306 87
4.5349999172613 83
4.53999991714954 109
4.54499991703779 81
4.54999991692603 103
4.55499991681427 91
4.55999991670251 82
4.56499991659075 96
4.56999991647899 89
4.57499991636723 93
4.57999991625547 98
4.58499991614372 109
4.58999991603196 106
4.5949999159202 100
4.59999991580844 85
4.60499991569668 112
4.60999991558492 139
4.61499991547316 109
4.6199999153614 82
4.62499991524965 108
4.62999991513789 106
4.63499991502613 94
4.63999991491437 103
4.64499991480261 113
4.64999991469085 103
4.65499991457909 116
4.65999991446733 139
4.66499991435558 127
4.66999991424382 95
4.67499991413206 127
4.6799999140203 130
4.68499991390854 119
4.68999991379678 125
4.69499991368502 129
4.69999991357327 102
4.70499991346151 110
4.70999991334975 112
4.71499991323799 114
4.71999991312623 112
4.72499991301447 101
4.72999991290271 112
4.73499991279095 118
4.7399999126792 125
4.74499991256744 117
4.74999991245568 120
4.75499991234392 140
4.75999991223216 128
4.7649999121204 124
4.76999991200864 133
4.77499991189688 161
4.77999991178513 134
4.78499991167337 155
4.78999991156161 172
4.79499991144985 137
4.79999991133809 169
4.80499991122633 165
4.80999991111457 189
4.81499991100281 233
4.81999991089106 252
4.8249999107793 260
4.82999991066754 393
4.83499991055578 393
4.83999991044402 437
4.84499991033226 443
4.8499999102205 410
4.85499991010875 423
4.85999990999699 354
4.86499990988523 302
4.86999990977347 266
4.87499990966171 271
4.87999990954995 254
4.88499990943819 211
4.88999990932643 229
4.89499990921468 212
4.89999990910292 200
4.90499990899116 195
4.9099999088794 191
4.91499990876764 162
4.91999990865588 194
4.92499990854412 204
4.92999990843236 182
4.93499990832061 189
4.93999990820885 178
4.94499990809709 183
4.94999990798533 196
4.95499990787357 199
4.95999990776181 187
4.96499990765005 218
4.96999990753829 206
4.97499990742654 213
4.97999990731478 214
4.98499990720302 225
4.98999990709126 211
4.9949999069795 271
4.99999990686774 232
5.00499990675598 225
5.00999990664423 256
5.01499990653247 200
5.01999990642071 261
5.02499990630895 290
5.02999990619719 258
5.03499990608543 270
5.03999990597367 285
5.04499990586191 282
5.04999990575016 302
5.0549999056384 304
5.05999990552664 316
5.06499990541488 302
5.06999990530312 356
5.07499990519136 355
5.0799999050796 362
5.08499990496784 360
5.08999990485609 401
5.09499990474433 445
5.09999990463257 457
5.10499990452081 507
5.10999990440905 545
5.11499990429729 613
5.11999990418553 665
5.12499990407377 731
5.12999990396202 761
5.13499990385026 846
5.1399999037385 838
5.14499990362674 835
5.14999990351498 832
5.15499990340322 744
5.15999990329146 715
5.16499990317971 681
5.16999990306795 774
5.17499990295619 742
5.17999990284443 705
5.18499990273267 755
5.18999990262091 789
5.19499990250915 786
5.19999990239739 857
5.20499990228564 812
5.20999990217388 847
5.21499990206212 817
5.21999990195036 753
5.2249999018386 875
5.22999990172684 895
5.23499990161508 1122
5.23999990150332 1252
5.24499990139157 1520
5.24999990127981 1649
5.25499990116805 1824
5.25999990105629 1928
5.26499990094453 2054
5.26999990083277 2368
5.27499990072101 2506
5.27999990060925 2848
5.2849999004975 3374
5.28999990038574 3825
5.29499990027398 4744
5.29999990016222 5698
5.30499990005046 7157
5.3099998999387 9137
5.31499989982694 12203
5.31999989971519 16015
5.32499989960343 22815
5.32999989949167 32355
5.33499989937991 46910
5.33999989926815 64909
5.34499989915639 88830
5.34999989904463 113691
5.35499989893287 137255.90625
5.35999989882112 151017.15625
5.36499989870936 157450
5.3699998985976 151029.25
5.37499989848584 135301.75
5.37999989837408 110391
5.38499989826232 90415
5.38999989815056 72347
5.3949998980388 56198
5.39999989792705 43203
5.40499989781529 34211
5.40999989770353 27642
5.41499989759177 22708
5.41999989748001 18420
5.42499989736825 15621
5.42999989725649 13223
5.43499989714473 10970
5.43999989703298 8880
5.44499989692122 7674
5.44999989680946 6559
5.4549998966977 5676
5.45999989658594 4922
5.46499989647418 4304
5.46999989636242 3875
5.47499989625067 3476
5.47999989613891 3184
5.48499989602715 2895
5.48999989591539 2860
5.49499989580363 2515
5.49999989569187 2265
5.50499989558011 2007
5.50999989546835 1895
5.5149998953566 1636
5.51999989524484 1437
5.52499989513308 1357
5.52999989502132 1207
5.53499989490956 1103
5.5399998947978 990
5.54499989468604 841
5.54999989457428 815
5.55499989446253 718
5.55999989435077 707
5.56499989423901 559
5.56999989412725 555
5.57499989401549 504
5.57999989390373 503
5.58499989379197 437
5.58999989368021 433
5.59499989356846 416
5.5999998934567 396
5.60499989334494 320
5.60999989323318 339
5.61499989312142 276
5.61999989300966 278
5.6249998928979 255
5.62999989278615 255
5.63499989267439 221
5.63999989256263 234
5.64499989245087 185
5.64999989233911 214
5.65499989222735 170
5.65999989211559 175
5.66499989200383 153
5.66999989189208 163
5.67499989178032 140
5.67999989166856 142
5.6849998915568 149
5.68999989144504 133
5.69499989133328 133
5.69999989122152 111
5.70499989110976 112
5.70999989099801 109
5.71499989088625 128
5.71999989077449 113
5.72499989066273 106
5.72999989055097 84
5.73499989043921 96
5.73999989032745 94
5.74499989021569 92
5.74999989010394 79
5.75499988999218 97
5.75999988988042 73
5.76499988976866 67
5.7699998896569 77
5.77499988954514 82
5.77999988943338 91
5.78499988932163 76
5.78999988920987 65
5.79499988909811 52
5.79999988898635 66
5.80499988887459 58
5.80999988876283 58
5.81499988865107 59
5.81999988853931 48
5.82499988842756 60
5.8299998883158 54
5.83499988820404 55
5.83999988809228 44
5.84499988798052 32
5.84999988786876 53
5.854999887757 53
5.85999988764524 37
5.86499988753349 35
5.86999988742173 40
5.87499988730997 39
5.87999988719821 38
5.88499988708645 42
5.88999988697469 36
5.89499988686293 36
5.89999988675117 36
5.90499988663942 31
5.90999988652766 38
5.9149998864159 45
5.91999988630414 30
5.92499988619238 38
5.92999988608062 30
5.93499988596886 30
5.93999988585711 31
5.94499988574535 21
5.94999988563359 23
5.95499988552183 24
5.95999988541007 27
5.96499988529831 37
5.96999988518655 24
5.97499988507479 20
5.97999988496304 29
5.98499988485128 19
5.98999988473952 26
5.99499988462776 26
5.999999884516 22
6.00499988440424 25
6.00999988429248 23
6.01499988418072 23
6.01999988406897 23
6.02499988395721 24
6.02999988384545 31
6.03499988373369 12
6.03999988362193 28
6.04499988351017 21
6.04999988339841 13
6.05499988328665 14
6.0599998831749 16
6.06499988306314 19
6.06999988295138 22
6.07499988283962 23
6.07999988272786 17
6.0849998826161 16
6.08999988250434 13
6.09499988239259 8
6.09999988228083 18
6.10499988216907 10
6.10999988205731 23
6.11499988194555 19
6.11999988183379 12
6.12499988172203 8
6.12999988161027 16
6.13499988149852 16
6.13999988138676 22
6.144999881275 11
6.14999988116324 10
6.15499988105148 18
6.15999988093972 11
6.16499988082796 9
6.1699998807162 8
6.17499988060445 10
6.17999988049269 13
6.18499988038093 14
6.18999988026917 14
6.19499988015741 15
6.19999988004565 11
6.20499987993389 9
6.20999987982214 13
6.21499987971038 10
6.21999987959862 15
6.22499987948686 7
6.2299998793751 15
6.23499987926334 11
6.23999987915158 14
6.24499987903982 16
6.24999987892807 19
6.25499987881631 12
6.25999987870455 6
6.26499987859279 9
6.26999987848103 15
6.27499987836927 5
6.27999987825751 13
6.28499987814575 9
6.289999878034 5
6.29499987792224 11
6.29999987781048 11
6.30499987769872 6
6.30999987758696 11
6.3149998774752 7
6.31999987736344 14
6.32499987725168 2
6.32999987713993 11
6.33499987702817 8
6.33999987691641 5
6.34499987680465 6
6.34999987669289 3
6.35499987658113 14
6.35999987646937 7
6.36499987635762 12
6.36999987624586 12
6.3749998761341 8
6.37999987602234 8
6.38499987591058 7
6.38999987579882 9
6.39499987568706 4
6.3999998755753 10
6.40499987546355 8
6.40999987535179 6
6.41499987524003 16
6.41999987512827 10
6.42499987501651 9
6.42999987490475 10
6.43499987479299 6
6.43999987468123 11
6.44499987456948 9
6.44999987445772 6
6.45499987434596 10
6.4599998742342 10
6.46499987412244 11
6.46999987401068 10
6.47499987389892 2
6.47999987378716 9
6.48499987367541 7
6.48999987356365 4
6.49499987345189 5
6.49999987334013 15
6.50499987322837 17
6.50999987311661 8
6.51499987300485 7
6.5199998728931 9
6.52499987278134 13
6.52999987266958 9
6.53499987255782 5
6.53999987244606 9
6.5449998723343 9
6.54999987222254 8
6.55499987211078 4
6.55999987199903 9
6.56499987188727 3
6.56999987177551 7
6.57499987166375 7
6.57999987155199 4
6.58499987144023 5
6.58999987132847 7
6.59499987121671 12
6.59999987110496 12
6.6049998709932 3
6.60999987088144 11
6.61499987076968 5
6.61999987065792 13
6.62499987054616 11
6.6299998704344 5
6.63499987032264 8
6.63999987021089 2
6.64499987009913 14
6.64999986998737 2
6.65499986987561 9
6.65999986976385 11
6.66499986965209 9
6.66999986954033 5
6.67499986942858 3
6.67999986931682 2
6.68499986920506 6
6.6899998690933 7
6.69499986898154 4
6.69999986886978 3
6.70499986875802 5
6.70999986864626 4
6.71499986853451 9
6.71999986842275 5
6.72499986831099 4
6.72999986819923 3
6.73499986808747 6
6.73999986797571 8
6.74499986786395 4
6.74999986775219 4
6.75499986764044 2
6.75999986752868 13
6.76499986741692 13
6.76999986730516 8
6.7749998671934 5
6.77999986708164 6
6.78499986696988 6
6.78999986685812 17
6.79499986674637 5
6.79999986663461 5
6.80499986652285 5
6.80999986641109 6
6.81499986629933 5
6.81999986618757 10
6.82499986607581 4
6.82999986596406 7
6.8349998658523 5
6.83999986574054 6
6.84499986562878 9
6.84999986551702 5
6.85499986540526 5
6.8599998652935 8
6.86499986518174 6
6.86999986506999 2
6.87499986495823 4
6.87999986484647 10
6.88499986473471 6
6.88999986462295 5
6.89499986451119 5
6.89999986439943 6
6.90499986428767 3
6.90999986417592 3
6.91499986406416 6
6.9199998639524 4
6.92499986384064 9
6.92999986372888 7
6.93499986361712 8
6.93999986350536 5
6.9449998633936 12
6.94999986328185 7
6.95499986317009 7
6.95999986305833 8
6.96499986294657 2
6.96999986283481 4
6.97499986272305 4
6.97999986261129 4
6.98499986249954 7
6.98999986238778 8
6.99499986227602 8
6.99999986216426 6
7.0049998620525 4
