'Id: "" Comment: "" Operator: "Lab Manager" Anode: "Cu" Scantype: "Unlocked Coupled" TimePerStep: "2.5" 
0.300000011920929 332869.975
0.30500001180917 337769.125
0.310000011697412 341398.55
0.315000011585653 344128.425
0.320000011473894 351280.05
0.325000011362135 356989.525
0.330000011250377 362059.85
0.335000011138618 366231.825
0.340000011026859 369251.05
0.345000010915101 375796.05
0.350000010803342 379699.625
0.355000010691583 384286.95
0.360000010579824 387143.225
0.365000010468066 392087.475
0.370000010356307 397504.225
0.375000010244548 401381.75
0.38000001013279 403188.975
0.385000010021031 409099.7
0.390000009909272 413332.45
0.395000009797513 417527.725
0.400000009685755 418127.7
0.405000009573996 424129.25
0.410000009462237 428354.1
0.415000009350479 429272.15
0.42000000923872 432011.75
0.425000009126961 439322.4
0.430000009015203 441898.6
0.435000008903444 440925
0.440000008791685 444752.8
0.445000008679926 450537.9
0.450000008568168 453522.5
0.455000008456409 454632.3
0.46000000834465 456183.7
0.465000008232892 462038.65
0.470000008121133 462790.9
0.475000008009374 465713.2
0.480000007897615 464634.6
0.485000007785857 470192.6
0.490000007674098 472447.8
0.495000007562339 475422.95
0.500000007450581 475010.6
0.505000007338822 475184.4
0.510000007227063 479024.3
0.515000007115304 479425.6
0.520000007003546 476600.25
0.525000006891787 480068.65
0.530000006780028 480864.5
0.53500000666827 483187.2
0.540000006556511 479750.7
0.545000006444752 478571.2
0.550000006332994 478330.7
0.555000006221235 477318.6
0.560000006109476 471981.1
0.565000005997717 469472.9
0.570000005885959 464849.3
0.5750000057742 460523.7
0.580000005662441 452021.45
0.585000005550683 450515.7
0.590000005438924 441900.35
0.595000005327165 432695.05
0.600000005215406 419509.2
0.605000005103648 410650.95
0.610000004991889 393806.5
0.61500000488013 375740.05
0.620000004768372 358369.45
0.625000004656613 337263.85
0.630000004544854 319265.475
0.635000004433095 294878.3
0.640000004321337 271095.125
0.645000004209578 249927.65
0.650000004097819 228518.55
0.655000003986061 207800.8
0.660000003874302 189744.525
0.665000003762543 174668.275
0.670000003650784 159291.6
0.675000003539026 144964.8625
0.680000003427267 133858.1375
0.685000003315508 123311.9375
0.69000000320375 115620.375
0.695000003091991 106582.725
0.700000002980232 99286.51875
0.705000002868474 92789.9625
0.710000002756715 87111.1625
0.715000002644956 81387.6375
0.720000002533197 76798.4
0.725000002421439 72556
0.73000000230968 68961.6
0.735000002197921 65387.2
0.740000002086163 61786.4
0.745000001974404 59133.6
0.750000001862645 56202.8
0.755000001750886 53741.2
0.760000001639128 51316
0.765000001527369 49202
0.77000000141561 46968
0.775000001303852 45056.4
0.780000001192093 43028.8
0.785000001080334 41508.4
0.790000000968575 40059.2
0.795000000856817 38229.6
0.800000000745058 36850.4
0.805000000633299 35623.6
0.810000000521541 34560.8
0.815000000409782 33108.4
0.820000000298023 31957.6
0.825000000186265 30968.4
0.830000000074506 29847.2
0.834999999962747 29008
0.839999999850988 27976
0.84499999973923 27359.6
0.849999999627471 26345.2
0.854999999515712 25486.8
0.859999999403954 24621.6
0.864999999292195 23968
0.869999999180436 23012.4
0.874999999068677 22485.6
0.879999998956919 21723.6
0.88499999884516 21342.8
0.889999998733401 20793.6
0.894999998621643 20118.8
0.899999998509884 19555.6
0.904999998398125 19116
0.909999998286366 18557.2
0.914999998174608 17980
0.919999998062849 17704.8
0.92499999795109 17196
0.929999997839332 16696.4
0.934999997727573 16269.6
0.939999997615814 15692
0.944999997504056 15536.8
0.949999997392297 15136.4
0.954999997280538 14802.4
0.959999997168779 14347.6
0.964999997057021 14100.8
0.969999996945262 13838.4
0.974999996833503 13539.2
0.979999996721745 13066.4
0.984999996609986 12888.4
0.989999996498227 12624.4
0.994999996386468 12277.2
0.99999999627471 12015.2
1.00499999616295 11786
1.00999999605119 11354
1.01499999593943 11223.6
1.01999999582767 10976.4
1.02499999571592 10780
1.02999999560416 10538.4
1.0349999954924 10288.4
1.03999999538064 10023.6
1.04499999526888 9752
1.04999999515712 9682.8
1.05499999504536 9469.6
1.05999999493361 9203.6
1.06499999482185 8982.8
1.06999999471009 8849.6
1.07499999459833 8646.4
1.07999999448657 8450
1.08499999437481 8274.4
1.08999999426305 8176.8
1.09499999415129 7952
1.09999999403954 7914
1.10499999392778 7630
1.10999999381602 7547.6
1.11499999370426 7451.2
1.1199999935925 7215.2
1.12499999348074 7140
1.12999999336898 6970
1.13499999325722 6885.2
1.13999999314547 6724
1.14499999303371 6630
1.14999999292195 6498.8
1.15499999281019 6362.8
1.15999999269843 6207.6
1.16499999258667 6215.2
1.16999999247491 6119.6
1.17499999236315 5981.2
1.1799999922514 5805.6
1.18499999213964 5620
1.18999999202788 5624.8
1.19499999191612 5529.2
1.19999999180436 5332.4
1.2049999916926 5270.4
1.20999999158084 5194
1.21499999146909 5200.4
1.21999999135733 4919.6
1.22499999124557 4916.4
1.22999999113381 4796
1.23499999102205 4763.2
1.23999999091029 4604.8
1.24499999079853 4666.4
1.24999999068677 4627.6
1.25499999057502 4356.4
1.25999999046326 4371.6
1.2649999903515 4286.8
1.26999999023974 4146.8
1.27499999012798 4109.6
1.27999999001622 3985.2
1.28499998990446 4015.6
1.2899999897927 3992.4
1.29499998968095 3847.6
1.29999998956919 3759.6
1.30499998945743 3674.8
1.30999998934567 3649.2
1.31499998923391 3596.4
1.31999998912215 3596
1.32499998901039 3390.4
1.32999998889863 3469.2
1.33499998878688 3396.4
1.33999998867512 3362.4
1.34499998856336 3348.8
1.3499999884516 3221.6
1.35499998833984 3215.6
1.35999998822808 3097.6
1.36499998811632 3094.8
1.36999998800457 3035.6
1.37499998789281 2959.6
1.37999998778105 2943.6
1.38499998766929 2874.4
1.38999998755753 2857.2
1.39499998744577 2814.8
1.39999998733401 2739.2
1.40499998722225 2693.2
1.4099999871105 2675.2
1.41499998699874 2636.8
1.41999998688698 2585.6
1.42499998677522 2604.8
1.42999998666346 2572.8
1.4349999865517 2463.2
1.43999998643994 2459.2
1.44499998632818 2439.2
1.44999998621643 2386
1.45499998610467 2346.4
1.45999998599291 2302
1.46499998588115 2243.6
1.46999998576939 2253.6
1.47499998565763 2202
1.47999998554587 2127.2
1.48499998543411 2156.8
1.48999998532236 2129.6
1.4949999852106 2038.4
1.49999998509884 2022.4
1.50499998498708 2019.2
1.50999998487532 1949.2
1.51499998476356 1959.6
1.5199999846518 1916
1.52499998454005 1943.6
1.52999998442829 1954
1.53499998431653 1844.4
1.53999998420477 1823.6
1.54499998409301 1813.6
1.54999998398125 1791.2
1.55499998386949 1828
1.55999998375773 1700.4
1.56499998364598 1720.8
1.56999998353422 1707.2
1.57499998342246 1685.6
1.5799999833107 1684.4
1.58499998319894 1593.6
1.58999998308718 1594.4
1.59499998297542 1538.8
1.59999998286366 1536.8
1.60499998275191 1565.6
1.60999998264015 1518.4
1.61499998252839 1561.2
1.61999998241663 1486.8
1.62499998230487 1453.6
1.62999998219311 1429.6
1.63499998208135 1420.8
1.63999998196959 1446.8
1.64499998185784 1394
1.64999998174608 1432.8
1.65499998163432 1355.6
1.65999998152256 1328.4
1.6649999814108 1319.2
1.66999998129904 1346.8
1.67499998118728 1288.4
1.67999998107553 1304
1.68499998096377 1276.8
1.68999998085201 1278
1.69499998074025 1238
1.69999998062849 1218
1.70499998051673 1189.6
1.70999998040497 1191.2
1.71499998029321 1227.6
1.71999998018146 1173.6
1.7249999800697 1165.6
1.72999997995794 1155.6
1.73499997984618 1187.2
1.73999997973442 1143.2
1.74499997962266 1138.8
1.7499999795109 1122.8
1.75499997939914 1077.6
1.75999997928739 1073.6
1.76499997917563 1085.2
1.76999997906387 1102.4
1.77499997895211 1074
1.77999997884035 1012.4
1.78499997872859 995.6
1.78999997861683 978.8
1.79499997850507 1004.4
1.79999997839332 1029.6
1.80499997828156 957.6
1.8099999781698 996.4
1.81499997805804 952.8
1.81999997794628 943.6
1.82499997783452 912.4
1.82999997772276 886.8
1.83499997761101 904
1.83999997749925 911.2
1.84499997738749 879.2
1.84999997727573 897.2
1.85499997716397 833.2
1.85999997705221 854.8
1.86499997694045 892.8
1.86999997682869 842
1.87499997671694 847.6
1.87999997660518 836.4
1.88499997649342 876
1.88999997638166 820.8
1.8949999762699 803.6
1.89999997615814 803.2
1.90499997604638 809.2
1.90999997593462 799.2
1.91499997582287 802
1.91999997571111 785.6
1.92499997559935 782.8
1.92999997548759 753.2
1.93499997537583 777.6
1.93999997526407 752.8
1.94499997515231 770.8
1.94999997504056 741.2
1.9549999749288 745.2
1.95999997481704 710
1.96499997470528 712.4
1.96999997459352 726
1.97499997448176 744.4
1.97999997437 709.2
1.98499997425824 690.8
1.98999997414649 654.4
1.99499997403473 709.6
1.99999997392297 683.6
2.00499997381121 658.8
2.00999997369945 663.2
2.01499997358769 629.6
2.01999997347593 631.6
2.02499997336417 635.2
2.02999997325242 627.2
2.03499997314066 635.6
2.0399999730289 622.8
2.04499997291714 633.2
2.04999997280538 643.6
2.05499997269362 577.6
2.05999997258186 588.4
2.0649999724701 579.6
2.06999997235835 592.8
2.07499997224659 576
2.07999997213483 566.4
2.08499997202307 574
2.08999997191131 584.4
2.09499997179955 525.6
2.09999997168779 526
2.10499997157604 552.8
2.10999997146428 532.4
2.11499997135252 523.6
2.11999997124076 512.4
2.124999971129 517.6
2.12999997101724 527.2
2.13499997090548 534.4
2.13999997079372 484.4
2.14499997068197 502
2.14999997057021 484.4
2.15499997045845 509.6
2.15999997034669 502
2.16499997023493 490.8
2.16999997012317 474.4
2.17499997001141 488.8
2.17999996989965 501.6
2.1849999697879 484
2.18999996967614 502.8
2.19499996956438 480.8
2.19999996945262 448.8
2.20499996934086 444.8
2.2099999692291 452
2.21499996911734 458.8
2.21999996900558 445.2
2.22499996889383 434.8
2.22999996878207 437.2
2.23499996867031 400.4
2.23999996855855 412
2.24499996844679 433.6
2.24999996833503 404.4
2.25499996822327 369.2
2.25999996811152 400.8
2.26499996799976 384.4
2.269999967888 409.6
2.27499996777624 374.8
2.27999996766448 376.8
2.28499996755272 374
2.28999996744096 370
2.2949999673292 393.6
2.29999996721745 372
2.30499996710569 350.4
2.30999996699393 366
2.31499996688217 366
2.31999996677041 355.6
2.32499996665865 342
2.32999996654689 345.6
2.33499996643513 329.2
2.33999996632338 330.8
2.34499996621162 332.4
2.34999996609986 336.4
2.3549999659881 329.2
2.35999996587634 332
2.36499996576458 308.8
2.36999996565282 345.2
2.37499996554106 326.4
2.37999996542931 328.8
2.38499996531755 334.4
2.38999996520579 339.2
2.39499996509403 320
2.39999996498227 314.4
2.40499996487051 335.2
2.40999996475875 294.8
2.414999964647 285.6
2.41999996453524 311.6
2.42499996442348 306.8
2.42999996431172 264
2.43499996419996 293.2
2.4399999640882 300.8
2.44499996397644 286.4
2.44999996386468 292.8
2.45499996375293 266
2.45999996364117 285.2
2.46499996352941 279.2
2.46999996341765 282
2.47499996330589 273.6
2.47999996319413 265.6
2.48499996308237 287.2
2.48999996297061 269.2
2.49499996285886 268.4
2.4999999627471 276
2.50499996263534 251.2
2.50999996252358 266.4
2.51499996241182 266.4
2.51999996230006 252.8
2.5249999621883 272
2.52999996207654 261.6
2.53499996196479 250.4
2.53999996185303 259.6
2.54499996174127 249.2
2.54999996162951 248.8
2.55499996151775 235.2
2.55999996140599 242.4
2.56499996129423 242.8
2.56999996118248 241.2
2.57499996107072 214
2.57999996095896 234.8
2.5849999608472 215.6
2.58999996073544 230
2.59499996062368 214.4
2.59999996051192 209.6
2.60499996040016 226.4
2.60999996028841 213.6
2.61499996017665 207.6
2.61999996006489 211.6
2.62499995995313 220.4
2.62999995984137 204
2.63499995972961 212.8
2.63999995961785 193.6
2.64499995950609 213.6
2.64999995939434 194.4
2.65499995928258 212.8
2.65999995917082 204.4
2.66499995905906 223.2
2.6699999589473 205.2
2.67499995883554 207.2
2.67999995872378 204
2.68499995861202 196.4
2.68999995850027 182.4
2.69499995838851 205.6
2.69999995827675 176.8
2.70499995816499 216
2.70999995805323 182
2.71499995794147 180
2.71999995782971 190.8
2.72499995771796 187.6
2.7299999576062 191.6
2.73499995749444 165.6
2.73999995738268 176
2.74499995727092 191.2
2.74999995715916 186.4
2.7549999570474 182
2.75999995693564 183.6
2.76499995682389 170
2.76999995671213 184.4
2.77499995660037 180
2.77999995648861 183.6
2.78499995637685 182.8
2.78999995626509 173.2
2.79499995615333 176
2.79999995604157 173.6
2.80499995592982 152.8
2.80999995581806 176
2.8149999557063 164.4
2.81999995559454 158.8
2.82499995548278 170.4
2.82999995537102 158.8
2.83499995525926 187.2
2.8399999551475 164
2.84499995503575 175.6
2.84999995492399 170.8
2.85499995481223 169.6
2.85999995470047 164.4
2.86499995458871 162.4
2.86999995447695 155.2
2.87499995436519 161.6
2.87999995425344 162.4
2.88499995414168 166
2.88999995402992 167.2
2.89499995391816 148
2.8999999538064 155.6
2.90499995369464 160
2.90999995358288 162.8
2.91499995347112 148.4
2.91999995335937 149.6
2.92499995324761 148
2.92999995313585 148.4
2.93499995302409 153.6
2.93999995291233 141.2
2.94499995280057 146
2.94999995268881 150.8
2.95499995257705 144.4
2.9599999524653 160.4
2.96499995235354 140.4
2.96999995224178 154
2.97499995213002 140
2.97999995201826 136
2.9849999519065 148
2.98999995179474 144
2.99499995168298 152.4
2.99999995157123 150
3.00499995145947 136
3.00999995134771 135.6
3.01499995123595 145.2
3.01999995112419 133.2
3.02499995101243 128.4
3.02999995090067 132.8
3.03499995078892 138.4
3.03999995067716 134.8
3.0449999505654 138
3.04999995045364 147.6
3.05499995034188 126
3.05999995023012 128.8
3.06499995011836 134
3.0699999500066 112.8
3.07499994989485 138.4
3.07999994978309 127.2
3.08499994967133 134
3.08999994955957 127.2
3.09499994944781 130
3.09999994933605 126
3.10499994922429 126.8
3.10999994911253 136.4
3.11499994900078 117.6
3.11999994888902 118.4
3.12499994877726 121.2
3.1299999486655 114
3.13499994855374 126.4
3.13999994844198 129.6
3.14499994833022 120.8
3.14999994821846 128.8
3.15499994810671 119.2
3.15999994799495 116.8
3.16499994788319 116
3.16999994777143 108.4
3.17499994765967 135.2
3.17999994754791 118.8
3.18499994743615 122.4
3.1899999473244 110.4
3.19499994721264 116
3.19999994710088 98.4
3.20499994698912 132.8
3.20999994687736 110.4
3.2149999467656 120.4
3.21999994665384 106.8
3.22499994654208 116.4
3.22999994643033 122.8
3.23499994631857 113.2
3.23999994620681 112.8
3.24499994609505 125.2
3.24999994598329 124.4
3.25499994587153 104.8
3.25999994575977 108.8
3.26499994564801 113.2
3.26999994553626 110.4
3.2749999454245 109.6
3.27999994531274 101.2
3.28499994520098 105.2
3.28999994508922 106.4
3.29499994497746 103.6
3.2999999448657 114.8
3.30499994475394 102
3.30999994464219 109.2
3.31499994453043 115.6
3.31999994441867 98.4
3.32499994430691 110.8
3.32999994419515 104.8
3.33499994408339 102
3.33999994397163 112.4
3.34499994385988 107.6
3.34999994374812 100.4
3.35499994363636 104
3.3599999435246 98.8
3.36499994341284 115.2
3.36999994330108 109.6
3.37499994318932 108.4
3.37999994307756 97.6
3.38499994296581 98.4
3.38999994285405 102.8
3.39499994274229 99.2
3.39999994263053 107.2
3.40499994251877 92.4
3.40999994240701 94
3.41499994229525 109.6
3.41999994218349 94.8
3.42499994207174 99.2
3.42999994195998 102.8
3.43499994184822 107.2
3.43999994173646 111.2
3.4449999416247 109.2
3.44999994151294 116.8
3.45499994140118 95.6
3.45999994128942 104.8
3.46499994117767 98.8
3.46999994106591 105.6
3.47499994095415 90.8
3.47999994084239 100
3.48499994073063 93.2
3.48999994061887 96.8
3.49499994050711 103.6
3.49999994039536 101.2
3.5049999402836 109.2
3.50999994017184 88.8
3.51499994006008 98.4
3.51999993994832 106.4
3.52499993983656 94.4
3.5299999397248 102
3.53499993961304 96.4
3.53999993950129 104
3.54499993938953 100.4
3.54999993927777 91.2
3.55499993916601 105.2
3.55999993905425 101.6
3.56499993894249 102.8
3.56999993883073 114.4
3.57499993871897 99.2
3.57999993860722 96.8
3.58499993849546 106.8
3.5899999383837 92.4
3.59499993827194 94.4
3.59999993816018 93.2
3.60499993804842 90
3.60999993793666 101.2
3.6149999378249 97.6
3.61999993771315 100.4
3.62499993760139 90
3.62999993748963 93.2
3.63499993737787 90.8
3.63999993726611 88.4
3.64499993715435 102
3.64999993704259 97.2
3.65499993693084 90.8
3.65999993681908 95.2
3.66499993670732 95.2
3.66999993659556 105.2
3.6749999364838 86
3.67999993637204 102.8
3.68499993626028 82.8
3.68999993614852 85.2
3.69499993603677 89.2
3.69999993592501 98
3.70499993581325 94.8
3.70999993570149 104
3.71499993558973 99.6
3.71999993547797 102.8
3.72499993536621 89.2
3.72999993525445 83.6
3.7349999351427 93.6
3.73999993503094 97.6
3.74499993491918 100
3.74999993480742 100.4
3.75499993469566 93.2
3.7599999345839 92.4
3.76499993447214 79.2
3.76999993436038 90.8
3.77499993424863 89.2
3.77999993413687 92.4
3.78499993402511 80.8
3.78999993391335 95.6
3.79499993380159 82.4
3.79999993368983 84.4
3.80499993357807 86
3.80999993346632 88.8
3.81499993335456 84
3.8199999332428 95.6
3.82499993313104 95.6
3.82999993301928 108.4
3.83499993290752 94.8
3.83999993279576 80.4
3.844999932684 91.6
3.84999993257225 88.8
3.85499993246049 86
3.85999993234873 92
3.86499993223697 94.8
3.86999993212521 85.2
3.87499993201345 92.8
3.87999993190169 89.2
3.88499993178993 86.4
3.88999993167818 93.2
3.89499993156642 87.6
3.89999993145466 97.2
3.9049999313429 81.6
3.90999993123114 100
3.91499993111938 91.6
3.91999993100762 84
3.92499993089587 89.6
3.92999993078411 83.2
3.93499993067235 85.2
3.93999993056059 84.4
3.94499993044883 79.6
3.94999993033707 80
3.95499993022531 92.4
3.95999993011355 86.8
3.9649999300018 84.4
3.96999992989004 84.8
3.97499992977828 86.4
3.97999992966652 89.6
3.98499992955476 88
3.989999929443 97.2
3.99499992933124 95.6
3.99999992921948 88.8
4.00499992910773 96.8
4.00999992899597 94.8
4.01499992888421 80.4
4.01999992877245 87.6
4.02499992866069 96.8
4.02999992854893 92.8
4.03499992843717 94
4.03999992832541 82.8
4.04499992821366 82.8
4.0499999281019 86.4
4.05499992799014 96.4
4.05999992787838 81.2
4.06499992776662 78
4.06999992765486 88
4.0749999275431 80.8
4.07999992743135 83.6
4.08499992731959 88
4.08999992720783 82
4.09499992709607 83.6
4.09999992698431 92.8
4.10499992687255 80.4
4.10999992676079 90
4.11499992664903 79.2
4.11999992653728 98
4.12499992642552 94
4.12999992631376 103.6
4.134999926202 96.4
4.13999992609024 91.6
4.14499992597848 84.8
4.14999992586672 90
4.15499992575496 93.2
4.15999992564321 83.6
4.16499992553145 80
4.16999992541969 86.4
4.17499992530793 91.6
4.17999992519617 94.8
4.18499992508441 91.2
4.18999992497265 89.6
4.19499992486089 88.4
4.19999992474914 86.8
4.20499992463738 91.2
4.20999992452562 93.2
4.21499992441386 94
4.2199999243021 86
4.22499992419034 100.8
4.22999992407858 93.6
4.23499992396683 94.8
4.23999992385507 89.6
4.24499992374331 98
4.24999992363155 94
4.25499992351979 83.6
4.25999992340803 106
4.26499992329627 86.4
4.26999992318451 96.4
4.27499992307276 90
4.279999922961 86.8
4.28499992284924 90.4
4.28999992273748 92
4.29499992262572 94.8
4.29999992251396 92.8
4.3049999224022 84.4
4.30999992229044 102.4
4.31499992217869 95.6
4.31999992206693 86
4.32499992195517 88
4.32999992184341 97.6
4.33499992173165 94.8
4.33999992161989 89.2
4.34499992150813 99.6
4.34999992139637 91.2
4.35499992128462 92.4
4.35999992117286 87.6
4.3649999210611 107.6
4.36999992094934 97.6
4.37499992083758 101.2
4.37999992072582 101.2
4.38499992061406 97.2
4.38999992050231 99.2
4.39499992039055 98.4
4.39999992027879 98
4.40499992016703 119.2
4.40999992005527 107.2
4.41499991994351 122.8
4.41999991983175 106
4.42499991971999 104
4.42999991960824 114
4.43499991949648 120
4.43999991938472 104.4
4.44499991927296 102.8
4.4499999191612 112.4
4.45499991904944 104
4.45999991893768 95.6
4.46499991882592 96.4
4.46999991871417 97.2
4.47499991860241 95.2
4.47999991849065 100.4
4.48499991837889 100.4
4.48999991826713 108.8
4.49499991815537 104.4
4.49999991804361 92.4
4.50499991793185 109.6
4.5099999178201 114.4
4.51499991770834 98
4.51999991759658 104.4
4.52499991748482 112.4
4.52999991737306 121.6
4.5349999172613 112
4.53999991714954 125.6
4.54499991703779 108.8
4.54999991692603 123.2
4.55499991681427 118.4
4.55999991670251 116.4
4.56499991659075 123.2
4.56999991647899 108.4
4.57499991636723 117.2
4.57999991625547 107.2
4.58499991614372 118.8
4.58999991603196 132.8
4.5949999159202 121.2
4.59999991580844 120
4.60499991569668 113.2
4.60999991558492 130.8
4.61499991547316 128.4
4.6199999153614 120.4
4.62499991524965 139.6
4.62999991513789 141.2
4.63499991502613 135.2
4.63999991491437 132.4
4.64499991480261 130.8
4.64999991469085 126
4.65499991457909 116
4.65999991446733 125.6
4.66499991435558 131.6
4.66999991424382 122
4.67499991413206 129.6
4.6799999140203 136.8
4.68499991390854 139.2
4.68999991379678 134
4.69499991368502 130.4
4.69999991357327 130.4
4.70499991346151 149.2
4.70999991334975 150.4
4.71499991323799 146.4
4.71999991312623 128.4
4.72499991301447 141.2
4.72999991290271 152.4
4.73499991279095 165.6
4.7399999126792 155.2
4.74499991256744 171.6
4.74999991245568 190.8
4.75499991234392 200.4
4.75999991223216 215.2
4.7649999121204 255.2
4.76999991200864 256.8
4.77499991189688 337.2
4.77999991178513 402
4.78499991167337 468
4.78999991156161 501.2
4.79499991144985 490
4.79999991133809 486
4.80499991122633 487.2
4.80999991111457 438
4.81499991100281 413.2
4.81999991089106 355.2
4.8249999107793 337.2
4.82999991066754 297.6
4.83499991055578 277.6
4.83999991044402 269.6
4.84499991033226 262
4.8499999102205 241.6
4.85499991010875 248.4
4.85999990999699 225.2
4.86499990988523 212.8
4.86999990977347 241.2
4.87499990966171 216.8
4.87999990954995 222.4
4.88499990943819 222.4
4.88999990932643 206.8
4.89499990921468 230.4
4.89999990910292 241.2
4.90499990899116 238
4.9099999088794 247.6
4.91499990876764 225.6
4.91999990865588 232.8
4.92499990854412 244
4.92999990843236 268.8
4.93499990832061 262.8
4.93999990820885 258.4
4.94499990809709 283.2
4.94999990798533 277.6
4.95499990787357 304
4.95999990776181 297.6
4.96499990765005 299.2
4.96999990753829 319.6
4.97499990742654 302.4
4.97999990731478 316
4.98499990720302 336.4
4.98999990709126 339.2
4.9949999069795 352.4
4.99999990686774 350.4
5.00499990675598 382
5.00999990664423 370.8
5.01499990653247 398
5.01999990642071 404.8
5.02499990630895 468
5.02999990619719 438.4
5.03499990608543 482.8
5.03999990597367 490.4
5.04499990586191 551.6
5.04999990575016 589.6
5.0549999056384 639.2
5.05999990552664 714.4
5.06499990541488 816
5.06999990530312 859.2
5.07499990519136 967.2
5.0799999050796 994
5.08499990496784 1061.6
5.08999990485609 1048.4
5.09499990474433 1053.2
5.09999990463257 1038.8
5.10499990452081 1008.4
5.10999990440905 994
5.11499990429729 945.6
5.11999990418553 974.8
5.12499990407377 922.8
5.12999990396202 983.2
5.13499990385026 950
5.1399999037385 1006.8
5.14499990362674 970.4
5.14999990351498 1024.8
5.15499990340322 1044.4
5.15999990329146 1036.8
5.16499990317971 1047.6
5.16999990306795 1127.6
5.17499990295619 1254
5.17999990284443 1419.2
5.18499990273267 1602.8
5.18999990262091 1801.6
5.19499990250915 2054
5.19999990239739 2189.6
5.20499990228564 2440.4
5.20999990217388 2714.8
5.21499990206212 3057.6
5.21999990195036 3325.6
5.2249999018386 3890.4
5.22999990172684 4365.2
5.23499990161508 5245.6
5.23999990150332 6225.6
5.24499990139157 7828
5.24999990127981 9854.8
5.25499990116805 12822.8
5.25999990105629 17108.8
5.26499990094453 23601.2
5.26999990083277 33429.6
5.27499990072101 47820
5.27999990060925 67581.6
5.2849999004975 95879.4375
5.28999990038574 126243.7625
5.29499990027398 158477.275
5.29999990016222 185575.4625
5.30499990005046 207257.4625
5.3099998999387 212918.525
5.31499989982694 206878.5
5.31999989971519 192534.2625
5.32499989960343 166959.9
5.32999989949167 141741.0625
5.33499989937991 113480.2625
5.33999989926815 90133.18125
5.34499989915639 70491.9
5.34999989904463 55840.4
5.35499989893287 44256
5.35999989882112 36067.6
5.36499989870936 29660
5.3699998985976 24891.6
5.37499989848584 20759.2
5.37999989837408 17275.6
5.38499989826232 14701.2
5.38999989815056 12463.6
5.3949998980388 10620
5.39999989792705 9155.2
5.40499989781529 7954
5.40999989770353 7104.8
5.41499989759177 6164
5.41999989748001 5545.6
5.42499989736825 5128.4
5.42999989725649 4683.2
5.43499989714473 4286.8
5.43999989703298 3917.6
5.44499989692122 3638.4
5.44999989680946 3285.6
5.4549998966977 2931.6
5.45999989658594 2684.8
5.46499989647418 2408
5.46999989636242 2236
5.47499989625067 1896.4
5.47999989613891 1770.8
5.48499989602715 1663.6
5.48999989591539 1514
5.49499989580363 1382.8
5.49999989569187 1240.8
5.50499989558011 1149.2
5.50999989546835 1049.2
5.5149998953566 935.6
5.51999989524484 848.4
5.52499989513308 764.8
5.52999989502132 759.2
5.53499989490956 670.8
5.5399998947978 645.6
5.54499989468604 612.8
5.54999989457428 572.4
5.55499989446253 540
5.55999989435077 509.2
5.56499989423901 465.2
5.56999989412725 440.8
5.57499989401549 385.2
5.57999989390373 364.4
5.58499989379197 345.2
5.58999989368021 336.4
5.59499989356846 314.4
5.5999998934567 313.6
5.60499989334494 294.8
5.60999989323318 270
5.61499989312142 262
5.61999989300966 263.6
5.6249998928979 227.6
5.62999989278615 244
5.63499989267439 229.2
5.63999989256263 210.4
5.64499989245087 196.8
5.64999989233911 180
5.65499989222735 175.2
5.65999989211559 188
5.66499989200383 169.2
5.66999989189208 169.6
5.67499989178032 159.2
5.67999989166856 156
5.6849998915568 150.4
5.68999989144504 140
5.69499989133328 154
5.69999989122152 133.2
5.70499989110976 122.4
5.70999989099801 128.4
5.71499989088625 114
5.71999989077449 124.4
5.72499989066273 116
5.72999989055097 109.6
5.73499989043921 109.6
5.73999989032745 110.8
5.74499989021569 101.2
5.74999989010394 101.2
5.75499988999218 100.4
5.75999988988042 94.4
5.76499988976866 87.6
5.7699998896569 89.6
5.77499988954514 92.8
5.77999988943338 82.8
5.78499988932163 80.8
5.78999988920987 85.6
5.79499988909811 78.4
5.79999988898635 76.8
5.80499988887459 75.6
5.80999988876283 72
5.81499988865107 64.8
5.81999988853931 58.4
5.82499988842756 64.4
5.8299998883158 58.8
5.83499988820404 55.6
5.83999988809228 60.4
5.84499988798052 58.4
5.84999988786876 55.2
5.854999887757 54.8
5.85999988764524 46
5.86499988753349 48.8
5.86999988742173 52
5.87499988730997 42.8
5.87999988719821 46.8
5.88499988708645 49.2
5.88999988697469 38
5.89499988686293 42.8
5.89999988675117 42
5.90499988663942 43.6
5.90999988652766 40.8
5.9149998864159 41.2
5.91999988630414 38.8
5.92499988619238 35.2
5.92999988608062 42.4
5.93499988596886 37.2
5.93999988585711 36.8
5.94499988574535 30.8
5.94999988563359 32.8
5.95499988552183 33.6
5.95999988541007 35.2
5.96499988529831 39.2
5.96999988518655 32
5.97499988507479 38
5.97999988496304 28.8
5.98499988485128 29.6
5.98999988473952 31.6
5.99499988462776 27.2
5.999999884516 25.2
6.00499988440424 21.2
6.00999988429248 29.2
6.01499988418072 24.8
6.01999988406897 25.2
6.02499988395721 25.6
6.02999988384545 25.6
6.03499988373369 24.4
6.03999988362193 27.6
6.04499988351017 25.6
6.04999988339841 26.4
6.05499988328665 16.8
6.0599998831749 21.2
6.06499988306314 20.8
6.06999988295138 24.8
6.07499988283962 27.6
6.07999988272786 25.6
6.0849998826161 21.6
6.08999988250434 18.8
6.09499988239259 21.2
6.09999988228083 24.4
6.10499988216907 17.2
6.10999988205731 22
6.11499988194555 20.4
6.11999988183379 14.4
6.12499988172203 19.6
6.12999988161027 20.4
6.13499988149852 20.4
6.13999988138676 18.4
6.144999881275 19.2
6.14999988116324 21.6
6.15499988105148 20.8
6.15999988093972 14.4
6.16499988082796 14.4
6.1699998807162 17.6
6.17499988060445 18.8
6.17999988049269 16.4
6.18499988038093 13.2
6.18999988026917 14
6.19499988015741 16.8
6.19999988004565 15.2
6.20499987993389 13.2
6.20999987982214 16.8
6.21499987971038 11.2
6.21999987959862 14
6.22499987948686 12.8
6.2299998793751 10
6.23499987926334 18
6.23999987915158 12
6.24499987903982 17.6
6.24999987892807 15.6
6.25499987881631 14
6.25999987870455 9.2
6.26499987859279 15.6
6.26999987848103 16
6.27499987836927 13.2
6.27999987825751 12.8
6.28499987814575 9.2
6.289999878034 13.2
6.29499987792224 15.2
6.29999987781048 15.2
6.30499987769872 12.4
6.30999987758696 12.8
6.3149998774752 10.8
6.31999987736344 16
6.32499987725168 10
6.32999987713993 9.2
6.33499987702817 10.4
6.33999987691641 12.8
6.34499987680465 11.2
6.34999987669289 12
6.35499987658113 10
6.35999987646937 10.8
6.36499987635762 9.2
6.36999987624586 9.2
6.3749998761341 13.6
6.37999987602234 9.6
6.38499987591058 12
6.38999987579882 8
6.39499987568706 12
6.3999998755753 11.6
6.40499987546355 11.2
6.40999987535179 11.6
6.41499987524003 10.8
6.41999987512827 6
6.42499987501651 8.8
6.42999987490475 9.6
6.43499987479299 8
6.43999987468123 5.6
6.44499987456948 10.8
6.44999987445772 7.2
6.45499987434596 11.6
6.4599998742342 6.8
6.46499987412244 7.2
6.46999987401068 9.2
6.47499987389892 9.6
6.47999987378716 6.8
6.48499987367541 8.4
6.48999987356365 7.6
6.49499987345189 5.2
6.49999987334013 7.6
6.50499987322837 7.2
6.50999987311661 10.4
6.51499987300485 6
6.5199998728931 5.6
6.52499987278134 9.6
6.52999987266958 8.8
6.53499987255782 8.4
6.53999987244606 7.2
6.5449998723343 8
6.54999987222254 11.2
6.55499987211078 8.4
6.55999987199903 8.8
6.56499987188727 10.8
6.56999987177551 7.6
6.57499987166375 8.4
6.57999987155199 5.2
6.58499987144023 8
6.58999987132847 6.4
6.59499987121671 8.8
6.59999987110496 6.4
6.6049998709932 10.4
6.60999987088144 6
6.61499987076968 7.2
6.61999987065792 9.2
6.62499987054616 9.2
6.6299998704344 4.4
6.63499987032264 7.2
6.63999987021089 6.4
6.64499987009913 7.2
6.64999986998737 7.6
6.65499986987561 6.4
6.65999986976385 5.2
6.66499986965209 7.2
6.66999986954033 7.6
6.67499986942858 8.4
6.67999986931682 7.2
6.68499986920506 4.4
6.6899998690933 7.6
6.69499986898154 5.2
6.69999986886978 8.8
6.70499986875802 6.8
6.70999986864626 7.2
6.71499986853451 6
6.71999986842275 5.2
6.72499986831099 4
6.72999986819923 7.6
6.73499986808747 3.2
6.73999986797571 6.4
6.74499986786395 8.8
6.74999986775219 6
6.75499986764044 6
6.75999986752868 6.8
6.76499986741692 5.6
6.76999986730516 3.2
6.7749998671934 7.2
6.77999986708164 6.4
6.78499986696988 6.8
6.78999986685812 4.4
6.79499986674637 5.2
6.79999986663461 4.8
6.80499986652285 6.8
6.80999986641109 5.2
6.81499986629933 6.8
6.81999986618757 6.4
6.82499986607581 5.2
6.82999986596406 4.4
6.8349998658523 4.8
6.83999986574054 4.8
6.84499986562878 9.2
6.84999986551702 4
6.85499986540526 9.2
6.8599998652935 5.2
6.86499986518174 5.6
6.86999986506999 5.2
6.87499986495823 6.8
6.87999986484647 4.4
6.88499986473471 3.6
6.88999986462295 4.8
6.89499986451119 7.6
6.89999986439943 4.4
6.90499986428767 5.2
6.90999986417592 2
6.91499986406416 3.6
6.9199998639524 6
6.92499986384064 5.2
6.92999986372888 3.6
6.93499986361712 4.4
6.93999986350536 5.6
6.9449998633936 4
6.94999986328185 5.6
6.95499986317009 3.2
6.95999986305833 5.6
6.96499986294657 4.8
6.96999986283481 6
6.97499986272305 4
6.97999986261129 5.6
6.98499986249954 3.6
6.98999986238778 4
6.99499986227602 5.6
6.99999986216426 4
