'Id: "" Comment: "" Operator: "Lab Manager" Anode: "Cu" Scantype: "Unlocked Coupled" TimePerStep: "1" 
0.300000011920929 967887.5
0.30500001180917 988379
0.310000011697412 988729
0.315000011585653 1010742
0.320000011473894 1029944
0.325000011362135 1035619.5
0.330000011250377 1051585
0.335000011138618 1056003.5
0.340000011026859 1053353.5
0.345000010915101 1078077
0.350000010803342 1080133
0.355000010691583 1109988.5
0.360000010579824 1112472
0.365000010468066 1121211.375
0.370000010356307 1146127
0.375000010244548 1138806
0.38000001013279 1155405.25
0.385000010021031 1167253.875
0.390000009909272 1190261.875
0.395000009797513 1201940.75
0.400000009685755 1199054.625
0.405000009573996 1215336.375
0.410000009462237 1222409.125
0.415000009350479 1242104.25
0.42000000923872 1261267
0.425000009126961 1261266.375
0.430000009015203 1262895.25
0.435000008903444 1274751
0.440000008791685 1293983.375
0.445000008679926 1307324.5
0.450000008568168 1315659.25
0.455000008456409 1318392
0.46000000834465 1321737
0.465000008232892 1339915.25
0.470000008121133 1323351.5
0.475000008009374 1317036
0.480000007897615 1335884.5
0.485000007785857 1341866.25
0.490000007674098 1332513.625
0.495000007562339 1377269
0.500000007450581 1360766.875
0.505000007338822 1351852.25
0.510000007227063 1365527
0.515000007115304 1377535.125
0.520000007003546 1391451.25
0.525000006891787 1395784
0.530000006780028 1405026.875
0.53500000666827 1394266.875
0.540000006556511 1386796
0.545000006444752 1391342.5
0.550000006332994 1396123.125
0.555000006221235 1412432.25
0.560000006109476 1389600.75
0.565000005997717 1387983.25
0.570000005885959 1377770.625
0.5750000057742 1379029.125
0.580000005662441 1343929
0.585000005550683 1314194.125
0.590000005438924 1315532.875
0.595000005327165 1300517.25
0.600000005215406 1263396.5
0.605000005103648 1243970.5
0.610000004991889 1197335.5
0.61500000488013 1172549
0.620000004768372 1099732
0.625000004656613 1057735
0.630000004544854 1000169
0.635000004433095 941655
0.640000004321337 810447.0625
0.645000004209578 752810.625
0.650000004097819 700194.625
0.655000003986061 652829.3125
0.660000003874302 597036.0625
0.665000003762543 554940.8125
0.670000003650784 513942.5625
0.675000003539026 479624.3125
0.680000003427267 440898.0625
0.685000003315508 413757.9375
0.69000000320375 387410.34375
0.695000003091991 362173.3125
0.700000002980232 338136.84375
0.705000002868474 318028.9375
0.710000002756715 301551.4375
0.715000002644956 283790.0625
0.720000002533197 265155.15625
0.725000002421439 253059.75
0.73000000230968 240306.75
0.735000002197921 229449.65625
0.740000002086163 214638.40625
0.745000001974404 207487.703125
0.750000001862645 199092.90625
0.755000001750886 190546.546875
0.760000001639128 178774.296875
0.765000001527369 173122
0.77000000141561 165553.953125
0.775000001303852 159710.84375
0.780000001192093 152470.796875
0.785000001080334 145772.84375
0.790000000968575 142083.953125
0.795000000856817 135672.796875
0.800000000745058 128631.1484375
0.805000000633299 126500.203125
0.810000000521541 120571.953125
0.815000000409782 116985.1484375
0.820000000298023 112407.3515625
0.825000000186265 109312.1484375
0.830000000074506 101351
0.834999999962747 98704
0.839999999850988 95043
0.84499999973923 91436
0.849999999627471 89443
0.854999999515712 87123
0.859999999403954 83658
0.864999999292195 80714
0.869999999180436 78694
0.874999999068677 77010
0.879999998956919 74277
0.88499999884516 71399
0.889999998733401 69795
0.894999998621643 68368
0.899999998509884 65674
0.904999998398125 64067
0.909999998286366 62417
0.914999998174608 61043
0.919999998062849 59019
0.92499999795109 57575
0.929999997839332 56381
0.934999997727573 55113
0.939999997615814 52737
0.944999997504056 51487
0.949999997392297 50629
0.954999997280538 49532
0.959999997168779 48225
0.964999997057021 46985
0.969999996945262 46334
0.974999996833503 45196
0.979999996721745 43741
0.984999996609986 42566
0.989999996498227 41846
0.994999996386468 41379
0.99999999627471 40000
1.00499999616295 39156
1.00999999605119 38448
1.01499999593943 37474
1.01999999582767 36014
1.02499999571592 35320
1.02999999560416 34613
1.0349999954924 33764
1.03999999538064 32514
1.04499999526888 31952
1.04999999515712 31135
1.05499999504536 30709
1.05999999493361 29763
1.06499999482185 29082
1.06999999471009 28554
1.07499999459833 28133
1.07999999448657 27183
1.08499999437481 26619
1.08999999426305 26090
1.09499999415129 25536
1.09999999403954 24571
1.10499999392778 24296
1.10999999381602 23945
1.11499999370426 23323
1.1199999935925 22751
1.12499999348074 22562
1.12999999336898 21709
1.13499999325722 21748
1.13999999314547 20685
1.14499999303371 20115
1.14999999292195 19911
1.15499999281019 19571
1.15999999269843 19081
1.16499999258667 18791
1.16999999247491 18352
1.17499999236315 18229
1.1799999922514 17570
1.18499999213964 17535
1.18999999202788 16976
1.19499999191612 16713
1.19999999180436 16364
1.2049999916926 15921
1.20999999158084 15728
1.21499999146909 15410
1.21999999135733 14923
1.22499999124557 14491
1.22999999113381 14318
1.23499999102205 14208
1.23999999091029 13672
1.24499999079853 13542
1.24999999068677 13051
1.25499999057502 12980
1.25999999046326 12562
1.2649999903515 12427
1.26999999023974 12258
1.27499999012798 12037
1.27999999001622 11809
1.28499998990446 11533
1.2899999897927 11290
1.29499998968095 10961
1.29999998956919 10928
1.30499998945743 10588
1.30999998934567 10443
1.31499998923391 10230
1.31999998912215 9921
1.32499998901039 9838
1.32999998889863 9808
1.33499998878688 9525
1.33999998867512 9451
1.34499998856336 9274
1.3499999884516 9090
1.35499998833984 9195
1.35999998822808 8858
1.36499998811632 8675
1.36999998800457 8506
1.37499998789281 8486
1.37999998778105 8059
1.38499998766929 8036
1.38999998755753 7926
1.39499998744577 7634
1.39999998733401 7583
1.40499998722225 7537
1.4099999871105 7208
1.41499998699874 7340
1.41999998688698 7090
1.42499998677522 6863
1.42999998666346 6911
1.4349999865517 6747
1.43999998643994 6693
1.44499998632818 6483
1.44999998621643 6392
1.45499998610467 6443
1.45999998599291 6380
1.46499998588115 6050
1.46999998576939 5924
1.47499998565763 5863
1.47999998554587 5801
1.48499998543411 5619
1.48999998532236 5548
1.4949999852106 5567
1.49999998509884 5297
1.50499998498708 5360
1.50999998487532 5275
1.51499998476356 5165
1.5199999846518 5009
1.52499998454005 4939
1.52999998442829 4832
1.53499998431653 4910
1.53999998420477 4659
1.54499998409301 4755
1.54999998398125 4560
1.55499998386949 4600
1.55999998375773 4380
1.56499998364598 4306
1.56999998353422 4353
1.57499998342246 4249
1.5799999833107 4267
1.58499998319894 4090
1.58999998308718 4009
1.59499998297542 3924
1.59999998286366 3961
1.60499998275191 3797
1.60999998264015 3781
1.61499998252839 3737
1.61999998241663 3796
1.62499998230487 3651
1.62999998219311 3571
1.63499998208135 3533
1.63999998196959 3532
1.64499998185784 3455
1.64999998174608 3473
1.65499998163432 3354
1.65999998152256 3252
1.6649999814108 3314
1.66999998129904 3185
1.67499998118728 3268
1.67999998107553 3043
1.68499998096377 3124
1.68999998085201 3012
1.69499998074025 2989
1.69999998062849 2958
1.70499998051673 2757
1.70999998040497 2847
1.71499998029321 2833
1.71999998018146 2704
1.7249999800697 2736
1.72999997995794 2717
1.73499997984618 2767
1.73999997973442 2598
1.74499997962266 2551
1.7499999795109 2617
1.75499997939914 2623
1.75999997928739 2433
1.76499997917563 2488
1.76999997906387 2441
1.77499997895211 2370
1.77999997884035 2254
1.78499997872859 2274
1.78999997861683 2296
1.79499997850507 2274
1.79999997839332 2273
1.80499997828156 2066
1.8099999781698 2198
1.81499997805804 2126
1.81999997794628 2022
1.82499997783452 2057
1.82999997772276 1999
1.83499997761101 1941
1.83999997749925 1887
1.84499997738749 1835
1.84999997727573 1948
1.85499997716397 1867
1.85999997705221 1890
1.86499997694045 1852
1.86999997682869 1887
1.87499997671694 1799
1.87999997660518 1823
1.88499997649342 1772
1.88999997638166 1738
1.8949999762699 1756
1.89999997615814 1705
1.90499997604638 1724
1.90999997593462 1641
1.91499997582287 1672
1.91999997571111 1626
1.92499997559935 1612
1.92999997548759 1550
1.93499997537583 1570
1.93999997526407 1562
1.94499997515231 1535
1.94999997504056 1528
1.9549999749288 1586
1.95999997481704 1561
1.96499997470528 1408
1.96999997459352 1400
1.97499997448176 1408
1.97999997437 1459
1.98499997425824 1384
1.98999997414649 1335
1.99499997403473 1338
1.99999997392297 1415
2.00499997381121 1276
2.00999997369945 1252
2.01499997358769 1230
2.01999997347593 1289
2.02499997336417 1304
2.02999997325242 1222
2.03499997314066 1243
2.0399999730289 1144
2.04499997291714 1218
2.04999997280538 1151
2.05499997269362 1120
2.05999997258186 1058
2.0649999724701 1072
2.06999997235835 1068
2.07499997224659 1050
2.07999997213483 1044
2.08499997202307 1022
2.08999997191131 1082
2.09499997179955 1060
2.09999997168779 1059
2.10499997157604 994
2.10999997146428 953
2.11499997135252 933
2.11999997124076 962
2.124999971129 952
2.12999997101724 955
2.13499997090548 863
2.13999997079372 932
2.14499997068197 805
2.14999997057021 843
2.15499997045845 853
2.15999997034669 853
2.16499997023493 818
2.16999997012317 810
2.17499997001141 838
2.17999996989965 791
2.1849999697879 787
2.18999996967614 796
2.19499996956438 765
2.19999996945262 783
2.20499996934086 730
2.2099999692291 749
2.21499996911734 755
2.21999996900558 745
2.22499996889383 735
2.22999996878207 660
2.23499996867031 698
2.23999996855855 720
2.24499996844679 667
2.24999996833503 669
2.25499996822327 611
2.25999996811152 649
2.26499996799976 636
2.269999967888 644
2.27499996777624 609
2.27999996766448 587
2.28499996755272 630
2.28999996744096 638
2.2949999673292 614
2.29999996721745 530
2.30499996710569 540
2.30999996699393 572
2.31499996688217 557
2.31999996677041 510
2.32499996665865 550
2.32999996654689 532
2.33499996643513 497
2.33999996632338 505
2.34499996621162 499
2.34999996609986 514
2.3549999659881 530
2.35999996587634 480
2.36499996576458 482
2.36999996565282 482
2.37499996554106 488
2.37999996542931 479
2.38499996531755 463
2.38999996520579 483
2.39499996509403 497
2.39999996498227 437
2.40499996487051 482
2.40999996475875 480
2.414999964647 491
2.41999996453524 446
2.42499996442348 458
2.42999996431172 436
2.43499996419996 393
2.4399999640882 457
2.44499996397644 399
2.44999996386468 423
2.45499996375293 422
2.45999996364117 391
2.46499996352941 371
2.46999996341765 405
2.47499996330589 375
2.47999996319413 414
2.48499996308237 405
2.48999996297061 408
2.49499996285886 341
2.4999999627471 344
2.50499996263534 357
2.50999996252358 374
2.51499996241182 335
2.51999996230006 337
2.5249999621883 349
2.52999996207654 339
2.53499996196479 348
2.53999996185303 347
2.54499996174127 348
2.54999996162951 339
2.55499996151775 332
2.55999996140599 319
2.56499996129423 323
2.56999996118248 303
2.57499996107072 341
2.57999996095896 312
2.5849999608472 301
2.58999996073544 297
2.59499996062368 287
2.59999996051192 298
2.60499996040016 299
2.60999996028841 289
2.61499996017665 260
2.61999996006489 269
2.62499995995313 266
2.62999995984137 271
2.63499995972961 273
2.63999995961785 255
2.64499995950609 270
2.64999995939434 265
2.65499995928258 265
2.65999995917082 252
2.66499995905906 240
2.6699999589473 281
2.67499995883554 260
2.67999995872378 242
2.68499995861202 234
2.68999995850027 239
2.69499995838851 243
2.69999995827675 218
2.70499995816499 265
2.70999995805323 221
2.71499995794147 233
2.71999995782971 225
2.72499995771796 217
2.7299999576062 213
2.73499995749444 217
2.73999995738268 241
2.74499995727092 221
2.74999995715916 253
2.7549999570474 237
2.75999995693564 205
2.76499995682389 241
2.76999995671213 190
2.77499995660037 207
2.77999995648861 193
2.78499995637685 180
2.78999995626509 199
2.79499995615333 157
2.79999995604157 191
2.80499995592982 181
2.80999995581806 200
2.8149999557063 195
2.81999995559454 210
2.82499995548278 191
2.82999995537102 223
2.83499995525926 164
2.8399999551475 177
2.84499995503575 129
2.84999995492399 210
2.85499995481223 189
2.85999995470047 193
2.86499995458871 202
2.86999995447695 190
2.87499995436519 195
2.87999995425344 178
2.88499995414168 192
2.88999995402992 171
2.89499995391816 207
2.8999999538064 153
2.90499995369464 177
2.90999995358288 163
2.91499995347112 138
2.91999995335937 151
2.92499995324761 163
2.92999995313585 165
2.93499995302409 154
2.93999995291233 162
2.94499995280057 155
2.94999995268881 160
2.95499995257705 167
2.9599999524653 152
2.96499995235354 134
2.96999995224178 175
2.97499995213002 154
2.97999995201826 140
2.9849999519065 173
2.98999995179474 146
2.99499995168298 135
2.99999995157123 153
3.00499995145947 156
3.00999995134771 152
3.01499995123595 146
3.01999995112419 120
3.02499995101243 129
3.02999995090067 128
3.03499995078892 131
3.03999995067716 134
3.0449999505654 131
3.04999995045364 126
3.05499995034188 164
3.05999995023012 121
3.06499995011836 155
3.0699999500066 129
3.07499994989485 131
3.07999994978309 119
3.08499994967133 123
3.08999994955957 125
3.09499994944781 118
3.09999994933605 116
3.10499994922429 131
3.10999994911253 139
3.11499994900078 126
3.11999994888902 128
3.12499994877726 124
3.1299999486655 90
3.13499994855374 132
3.13999994844198 108
3.14499994833022 119
3.14999994821846 94
3.15499994810671 111
3.15999994799495 125
3.16499994788319 97
3.16999994777143 115
3.17499994765967 119
3.17999994754791 117
3.18499994743615 103
3.1899999473244 97
3.19499994721264 107
3.19999994710088 111
3.20499994698912 102
3.20999994687736 103
3.2149999467656 103
3.21999994665384 113
3.22499994654208 108
3.22999994643033 90
3.23499994631857 98
3.23999994620681 108
3.24499994609505 95
3.24999994598329 130
3.25499994587153 90
3.25999994575977 87
3.26499994564801 99
3.26999994553626 107
3.2749999454245 86
3.27999994531274 92
3.28499994520098 92
3.28999994508922 74
3.29499994497746 100
3.2999999448657 84
3.30499994475394 75
3.30999994464219 89
3.31499994453043 95
3.31999994441867 100
3.32499994430691 76
3.32999994419515 69
3.33499994408339 81
3.33999994397163 73
3.34499994385988 91
3.34999994374812 58
3.35499994363636 86
3.3599999435246 68
3.36499994341284 78
3.36999994330108 74
3.37499994318932 70
3.37999994307756 75
3.38499994296581 85
3.38999994285405 77
3.39499994274229 75
3.39999994263053 82
3.40499994251877 79
3.40999994240701 76
3.41499994229525 68
3.41999994218349 82
3.42499994207174 86
3.42999994195998 72
3.43499994184822 82
3.43999994173646 64
3.4449999416247 76
3.44999994151294 70
3.45499994140118 71
3.45999994128942 75
3.46499994117767 72
3.46999994106591 69
3.47499994095415 76
3.47999994084239 76
3.48499994073063 75
3.48999994061887 67
3.49499994050711 62
3.49999994039536 56
3.5049999402836 61
3.50999994017184 64
3.51499994006008 69
3.51999993994832 55
3.52499993983656 58
3.5299999397248 72
3.53499993961304 72
3.53999993950129 61
3.54499993938953 62
3.54999993927777 64
3.55499993916601 61
3.55999993905425 56
3.56499993894249 66
3.56999993883073 60
3.57499993871897 78
3.57999993860722 60
3.58499993849546 54
3.5899999383837 62
3.59499993827194 81
3.59999993816018 63
3.60499993804842 65
3.60999993793666 52
3.6149999378249 61
3.61999993771315 63
3.62499993760139 66
3.62999993748963 73
3.63499993737787 81
3.63999993726611 58
3.64499993715435 60
3.64999993704259 56
3.65499993693084 81
3.65999993681908 56
3.66499993670732 62
3.66999993659556 53
3.6749999364838 81
3.67999993637204 52
3.68499993626028 54
3.68999993614852 59
3.69499993603677 51
3.69999993592501 54
3.70499993581325 65
3.70999993570149 68
3.71499993558973 67
3.71999993547797 56
3.72499993536621 54
3.72999993525445 54
3.7349999351427 48
3.73999993503094 63
3.74499993491918 59
3.74999993480742 58
3.75499993469566 50
3.7599999345839 59
3.76499993447214 55
3.76999993436038 60
3.77499993424863 63
3.77999993413687 50
3.78499993402511 51
3.78999993391335 61
3.79499993380159 54
3.79999993368983 58
3.80499993357807 50
3.80999993346632 58
3.81499993335456 55
3.8199999332428 57
3.82499993313104 55
3.82999993301928 49
3.83499993290752 64
3.83999993279576 56
3.844999932684 43
3.84999993257225 57
3.85499993246049 59
3.85999993234873 58
3.86499993223697 48
3.86999993212521 61
3.87499993201345 53
3.87999993190169 61
3.88499993178993 55
3.88999993167818 66
3.89499993156642 45
3.89999993145466 48
3.9049999313429 55
3.90999993123114 51
3.91499993111938 55
3.91999993100762 52
3.92499993089587 64
3.92999993078411 48
3.93499993067235 59
3.93999993056059 55
3.94499993044883 47
3.94999993033707 47
3.95499993022531 53
3.95999993011355 45
3.9649999300018 62
3.96999992989004 47
3.97499992977828 62
3.97999992966652 42
3.98499992955476 70
3.989999929443 57
3.99499992933124 46
3.99999992921948 44
4.00499992910773 46
4.00999992899597 59
4.01499992888421 69
4.01999992877245 71
4.02499992866069 55
4.02999992854893 54
4.03499992843717 54
4.03999992832541 43
4.04499992821366 47
4.0499999281019 52
4.05499992799014 45
4.05999992787838 48
4.06499992776662 64
4.06999992765486 63
4.0749999275431 68
4.07999992743135 63
4.08499992731959 47
4.08999992720783 55
4.09499992709607 66
4.09999992698431 60
4.10499992687255 45
4.10999992676079 53
4.11499992664903 59
4.11999992653728 53
4.12499992642552 50
4.12999992631376 60
4.134999926202 45
4.13999992609024 52
4.14499992597848 66
4.14999992586672 48
4.15499992575496 54
4.15999992564321 52
4.16499992553145 48
4.16999992541969 54
4.17499992530793 56
4.17999992519617 67
4.18499992508441 77
4.18999992497265 50
4.19499992486089 53
4.19999992474914 52
4.20499992463738 63
4.20999992452562 60
4.21499992441386 62
4.2199999243021 59
4.22499992419034 51
4.22999992407858 47
4.23499992396683 66
4.23999992385507 47
4.24499992374331 59
4.24999992363155 60
4.25499992351979 50
4.25999992340803 44
4.26499992329627 41
4.26999992318451 51
4.27499992307276 59
4.279999922961 50
4.28499992284924 59
4.28999992273748 60
4.29499992262572 65
4.29999992251396 49
4.3049999224022 56
4.30999992229044 58
4.31499992217869 51
4.31999992206693 54
4.32499992195517 45
4.32999992184341 59
4.33499992173165 66
4.33999992161989 61
4.34499992150813 45
4.34999992139637 56
4.35499992128462 59
4.35999992117286 66
4.3649999210611 49
4.36999992094934 57
4.37499992083758 58
4.37999992072582 51
4.38499992061406 53
4.38999992050231 51
4.39499992039055 45
4.39999992027879 54
4.40499992016703 51
4.40999992005527 43
4.41499991994351 61
4.41999991983175 74
4.42499991971999 52
4.42999991960824 35
4.43499991949648 48
4.43999991938472 57
4.44499991927296 46
4.4499999191612 73
4.45499991904944 66
4.45999991893768 58
4.46499991882592 64
4.46999991871417 75
4.47499991860241 66
4.47999991849065 62
4.48499991837889 63
4.48999991826713 51
4.49499991815537 59
4.49999991804361 58
4.50499991793185 65
4.5099999178201 69
4.51499991770834 58
4.51999991759658 45
4.52499991748482 57
4.52999991737306 48
4.5349999172613 48
4.53999991714954 65
4.54499991703779 59
4.54999991692603 42
4.55499991681427 54
4.55999991670251 57
4.56499991659075 55
4.56999991647899 64
4.57499991636723 66
4.57999991625547 58
4.58499991614372 75
4.58999991603196 61
4.5949999159202 55
4.59999991580844 73
4.60499991569668 47
4.60999991558492 74
4.61499991547316 71
4.6199999153614 67
4.62499991524965 65
4.62999991513789 60
4.63499991502613 57
4.63999991491437 63
4.64499991480261 64
4.64999991469085 62
4.65499991457909 66
4.65999991446733 73
4.66499991435558 57
4.66999991424382 66
4.67499991413206 71
4.6799999140203 77
4.68499991390854 66
4.68999991379678 65
4.69499991368502 56
4.69999991357327 66
4.70499991346151 68
4.70999991334975 73
4.71499991323799 68
4.71999991312623 81
4.72499991301447 45
4.72999991290271 64
4.73499991279095 69
4.7399999126792 83
4.74499991256744 68
4.74999991245568 83
4.75499991234392 70
4.75999991223216 76
4.7649999121204 83
4.76999991200864 82
4.77499991189688 82
4.77999991178513 80
4.78499991167337 95
4.78999991156161 68
4.79499991144985 93
4.79999991133809 78
4.80499991122633 78
4.80999991111457 88
4.81499991100281 79
4.81999991089106 106
4.8249999107793 113
4.82999991066754 112
4.83499991055578 175
4.83999991044402 182
4.84499991033226 228
4.8499999102205 282
4.85499991010875 266
4.85999990999699 236
4.86499990988523 247
4.86999990977347 222
4.87499990966171 187
4.87999990954995 194
4.88499990943819 181
4.88999990932643 125
4.89499990921468 154
4.89999990910292 132
4.90499990899116 117
4.9099999088794 131
4.91499990876764 113
4.91999990865588 112
4.92499990854412 133
4.92999990843236 123
4.93499990832061 127
4.93999990820885 110
4.94499990809709 121
4.94999990798533 109
4.95499990787357 113
4.95999990776181 119
4.96499990765005 126
4.96999990753829 135
4.97499990742654 124
4.97999990731478 146
4.98499990720302 154
4.98999990709126 124
4.9949999069795 136
4.99999990686774 116
5.00499990675598 138
5.00999990664423 141
5.01499990653247 158
5.01999990642071 133
5.02499990630895 154
5.02999990619719 143
5.03499990608543 167
5.03999990597367 156
5.04499990586191 159
5.04999990575016 172
5.0549999056384 159
5.05999990552664 161
5.06499990541488 196
5.06999990530312 165
5.07499990519136 175
5.0799999050796 184
5.08499990496784 231
5.08999990485609 210
5.09499990474433 198
5.09999990463257 232
5.10499990452081 264
5.10999990440905 245
5.11499990429729 280
5.11999990418553 299
5.12499990407377 330
5.12999990396202 404
5.13499990385026 398
5.1399999037385 431
5.14499990362674 443
5.14999990351498 453
5.15499990340322 499
5.15999990329146 503
5.16499990317971 438
5.16999990306795 481
5.17499990295619 435
5.17999990284443 440
5.18499990273267 408
5.18999990262091 447
5.19499990250915 438
5.19999990239739 447
5.20499990228564 451
5.20999990217388 452
5.21499990206212 521
5.21999990195036 476
5.2249999018386 492
5.22999990172684 459
5.23499990161508 508
5.23999990150332 498
5.24499990139157 611
5.24999990127981 719
5.25499990116805 831
5.25999990105629 935
5.26499990094453 995
5.26999990083277 1118
5.27499990072101 1290
5.27999990060925 1359
5.2849999004975 1491
5.28999990038574 1544
5.29499990027398 1861
5.29999990016222 2072
5.30499990005046 2556
5.3099998999387 3108
5.31499989982694 3823
5.31999989971519 4771
5.32499989960343 6308
5.32999989949167 8200
5.33499989937991 11953
5.33999989926815 15594
5.34499989915639 22875
5.34999989904463 31657
5.35499989893287 44464
5.35999989882112 56695
5.36499989870936 70347
5.3699998985976 81063
5.37499989848584 90326
5.37999989837408 89391
5.38499989826232 85849
5.38999989815056 77141
5.3949998980388 66348
5.39999989792705 52968
5.40499989781529 41733
5.40999989770353 32964
5.41499989759177 25895
5.41999989748001 20154
5.42499989736825 15898
5.42999989725649 13092
5.43499989714473 10942
5.43999989703298 9059
5.44499989692122 7665
5.44999989680946 6188
5.4549998966977 5363
5.45999989658594 4271
5.46499989647418 3630
5.46999989636242 3136
5.47499989625067 2766
5.47999989613891 2268
5.48499989602715 2043
5.48999989591539 1887
5.49499989580363 1774
5.49999989569187 1609
5.50499989558011 1530
5.50999989546835 1353
5.5149998953566 1246
5.51999989524484 1012
5.52499989513308 1023
5.52999989502132 877
5.53499989490956 834
5.5399998947978 695
5.54499989468604 652
5.54999989457428 574
5.55499989446253 581
5.55999989435077 489
5.56499989423901 458
5.56999989412725 393
5.57499989401549 375
5.57999989390373 351
5.58499989379197 330
5.58999989368021 315
5.59499989356846 253
5.5999998934567 227
5.60499989334494 265
5.60999989323318 209
5.61499989312142 200
5.61999989300966 198
5.6249998928979 179
5.62999989278615 155
5.63499989267439 142
5.63999989256263 135
5.64499989245087 147
5.64999989233911 133
5.65499989222735 139
5.65999989211559 115
5.66499989200383 101
5.66999989189208 89
5.67499989178032 95
5.67999989166856 81
5.6849998915568 95
5.68999989144504 94
5.69499989133328 97
5.69999989122152 80
5.70499989110976 76
5.70999989099801 81
5.71499989088625 66
5.71999989077449 74
5.72499989066273 65
5.72999989055097 60
5.73499989043921 63
5.73999989032745 53
5.74499989021569 61
5.74999989010394 51
5.75499988999218 51
5.75999988988042 60
5.76499988976866 43
5.7699998896569 51
5.77499988954514 42
5.77999988943338 40
5.78499988932163 52
5.78999988920987 42
5.79499988909811 44
5.79999988898635 38
5.80499988887459 46
5.80999988876283 40
5.81499988865107 45
5.81999988853931 45
5.82499988842756 32
5.8299998883158 31
5.83499988820404 35
5.83999988809228 33
5.84499988798052 30
5.84999988786876 36
5.854999887757 30
5.85999988764524 32
5.86499988753349 25
5.86999988742173 30
5.87499988730997 30
5.87999988719821 25
5.88499988708645 23
5.88999988697469 31
5.89499988686293 28
5.89999988675117 14
5.90499988663942 21
5.90999988652766 21
5.9149998864159 20
5.91999988630414 28
5.92499988619238 21
5.92999988608062 20
5.93499988596886 29
5.93999988585711 22
5.94499988574535 18
5.94999988563359 12
5.95499988552183 11
5.95999988541007 17
5.96499988529831 18
5.96999988518655 30
5.97499988507479 12
5.97999988496304 20
5.98499988485128 19
5.98999988473952 18
5.99499988462776 17
5.999999884516 13
6.00499988440424 13
6.00999988429248 12
6.01499988418072 11
6.01999988406897 18
6.02499988395721 17
6.02999988384545 17
6.03499988373369 14
6.03999988362193 10
6.04499988351017 16
6.04999988339841 7
6.05499988328665 10
6.0599998831749 14
6.06499988306314 9
6.06999988295138 11
6.07499988283962 10
6.07999988272786 13
6.0849998826161 20
6.08999988250434 11
6.09499988239259 6
6.09999988228083 12
6.10499988216907 8
6.10999988205731 10
6.11499988194555 5
6.11999988183379 5
6.12499988172203 11
6.12999988161027 7
6.13499988149852 15
6.13999988138676 16
6.144999881275 7
6.14999988116324 12
6.15499988105148 12
6.15999988093972 10
6.16499988082796 11
6.1699998807162 10
6.17499988060445 5
6.17999988049269 11
6.18499988038093 7
6.18999988026917 11
6.19499988015741 12
6.19999988004565 6
6.20499987993389 7
6.20999987982214 5
6.21499987971038 8
6.21999987959862 9
6.22499987948686 6
6.2299998793751 5
6.23499987926334 6
6.23999987915158 9
6.24499987903982 7
6.24999987892807 10
6.25499987881631 7
6.25999987870455 3
6.26499987859279 4
6.26999987848103 4
6.27499987836927 8
6.27999987825751 9
6.28499987814575 10
6.289999878034 8
6.29499987792224 6
6.29999987781048 3
6.30499987769872 6
6.30999987758696 9
6.3149998774752 12
6.31999987736344 4
6.32499987725168 5
6.32999987713993 6
6.33499987702817 5
6.33999987691641 5
6.34499987680465 5
6.34999987669289 4
6.35499987658113 6
6.35999987646937 4
6.36499987635762 7
6.36999987624586 3
6.3749998761341 8
6.37999987602234 5
6.38499987591058 7
6.38999987579882 6
6.39499987568706 6
6.3999998755753 7
6.40499987546355 5
6.40999987535179 1
6.41499987524003 8
6.41999987512827 9
6.42499987501651 4
6.42999987490475 9
6.43499987479299 5
6.43999987468123 5
6.44499987456948 3
6.44999987445772 4
6.45499987434596 6
6.4599998742342 6
6.46499987412244 9
6.46999987401068 3
6.47499987389892 8
6.47999987378716 9
6.48499987367541 6
6.48999987356365 4
6.49499987345189 2
6.49999987334013 8
6.50499987322837 3
6.50999987311661 4
6.51499987300485 3
6.5199998728931 6
6.52499987278134 4
6.52999987266958 2
6.53499987255782 6
6.53999987244606 9
6.5449998723343 3
6.54999987222254 5
6.55499987211078 6
6.55999987199903 6
6.56499987188727 6
6.56999987177551 7
6.57499987166375 1
6.57999987155199 4
6.58499987144023 4
6.58999987132847 2
6.59499987121671 4
6.59999987110496 4
6.6049998709932 0
6.60999987088144 5
6.61499987076968 7
6.61999987065792 7
6.62499987054616 4
6.6299998704344 3
6.63499987032264 6
6.63999987021089 4
6.64499987009913 4
6.64999986998737 2
6.65499986987561 4
6.65999986976385 4
6.66499986965209 4
6.66999986954033 4
6.67499986942858 4
6.67999986931682 7
6.68499986920506 3
6.6899998690933 1
6.69499986898154 6
6.69999986886978 4
6.70499986875802 10
6.70999986864626 8
6.71499986853451 4
6.71999986842275 4
6.72499986831099 4
6.72999986819923 4
6.73499986808747 3
6.73999986797571 1
6.74499986786395 6
6.74999986775219 3
6.75499986764044 4
6.75999986752868 1
6.76499986741692 3
6.76999986730516 2
6.7749998671934 4
6.77999986708164 2
6.78499986696988 4
6.78999986685812 3
6.79499986674637 2
6.79999986663461 3
6.80499986652285 5
6.80999986641109 4
6.81499986629933 6
6.81999986618757 6
6.82499986607581 9
6.82999986596406 6
6.8349998658523 5
6.83999986574054 5
6.84499986562878 4
6.84999986551702 4
6.85499986540526 2
6.8599998652935 4
6.86499986518174 5
6.86999986506999 4
6.87499986495823 5
6.87999986484647 1
6.88499986473471 4
6.88999986462295 1
6.89499986451119 2
6.89999986439943 2
6.90499986428767 2
6.90999986417592 5
6.91499986406416 2
6.9199998639524 9
6.92499986384064 5
6.92999986372888 3
6.93499986361712 4
6.93999986350536 1
6.9449998633936 4
6.94999986328185 2
6.95499986317009 5
6.95999986305833 4
6.96499986294657 3
6.96999986283481 6
6.97499986272305 1
6.97999986261129 6
6.98499986249954 6
6.98999986238778 5
6.99499986227602 3
6.99999986216426 3
