'Id: "" Comment: "" Operator: "Lab Manager" Anode: "Cu" Scantype: "Unlocked Coupled" TimePerStep: "2" 
0.300000011920929 786830.1875
0.30500001180917 802124.6875
0.310000011697412 808715.6875
0.315000011585653 821614.625
0.320000011473894 835675.4375
0.325000011362135 847192.75
0.330000011250377 860619.8125
0.335000011138618 871140.0625
0.340000011026859 883282.75
0.345000010915101 896967.5
0.350000010803342 903368.375
0.355000010691583 915692.6875
0.360000010579824 925667.9375
0.365000010468066 940235.75
0.370000010356307 948926.5625
0.375000010244548 962531.0625
0.38000001013279 969227.6875
0.385000010021031 987944.4375
0.390000009909272 998004.125
0.395000009797513 1006479.5
0.400000009685755 1013362
0.405000009573996 1032260.4375
0.410000009462237 1038961.3125
0.415000009350479 1046008.625
0.42000000923872 1056575.375
0.425000009126961 1069647.5
0.430000009015203 1083961.75
0.435000008903444 1083898.375
0.440000008791685 1096704.375
0.445000008679926 1116401.375
0.450000008568168 1122054.375
0.455000008456409 1128603.125
0.46000000834465 1139845.875
0.465000008232892 1147252.25
0.470000008121133 1157033.125
0.475000008009374 1160447
0.480000007897615 1171271.375
0.485000007785857 1183388.75
0.490000007674098 1192954.125
0.495000007562339 1197698.75
0.500000007450581 1203402.5
0.505000007338822 1214222.75
0.510000007227063 1219677.25
0.515000007115304 1226711.875
0.520000007003546 1232686
0.525000006891787 1243092.125
0.530000006780028 1245753.875
0.53500000666827 1251770.375
0.540000006556511 1257136.125
0.545000006444752 1261217.375
0.550000006332994 1262472.25
0.555000006221235 1265455.125
0.560000006109476 1264842.5
0.565000005997717 1266169.125
0.570000005885959 1263101.75
0.5750000057742 1260444.25
0.580000005662441 1255522.125
0.585000005550683 1256143.25
0.590000005438924 1245149.75
0.595000005327165 1232352.25
0.600000005215406 1220315.25
0.605000005103648 1208704.875
0.610000004991889 1188792.5
0.61500000488013 1157607.75
0.620000004768372 1131552.125
0.625000004656613 1097249.375
0.630000004544854 1057433
0.635000004433095 1009593.3125
0.640000004321337 957106.125
0.645000004209578 909051
0.650000004097819 849563
0.655000003986061 790949.5625
0.660000003874302 731782.6875
0.665000003762543 677630.875
0.670000003650784 627987.125
0.675000003539026 581465.625
0.680000003427267 537597.4375
0.685000003315508 500163.9375
0.69000000320375 466414.65625
0.695000003091991 434042.6875
0.700000002980232 402194.65625
0.705000002868474 380554.1875
0.710000002756715 356644.9375
0.715000002644956 334062.3125
0.720000002533197 314720.25
0.725000002421439 299898.9375
0.73000000230968 282010.3125
0.735000002197921 265710.25
0.740000002086163 254653.421875
0.745000001974404 241678.453125
0.750000001862645 230946.953125
0.755000001750886 219231.03125
0.760000001639128 210083.90625
0.765000001527369 199687.875
0.77000000141561 191222.71875
0.775000001303852 182786
0.780000001192093 176613
0.785000001080334 169026.5
0.790000000968575 163127
0.795000000856817 156565
0.800000000745058 150707
0.805000000633299 146276.5
0.810000000521541 140277
0.815000000409782 135236.5
0.820000000298023 130682.5
0.825000000186265 126418.5
0.830000000074506 122235.5
0.834999999962747 117370
0.839999999850988 114647.5
0.84499999973923 111414
0.849999999627471 107540
0.854999999515712 103563
0.859999999403954 100394.5
0.864999999292195 97827
0.869999999180436 94597.5
0.874999999068677 91883.5
0.879999998956919 89091.5
0.88499999884516 86532.5
0.889999998733401 84000
0.894999998621643 82028.5
0.899999998509884 79231.5
0.904999998398125 77198.5
0.909999998286366 75113
0.914999998174608 72746.5
0.919999998062849 70950.5
0.92499999795109 69482
0.929999997839332 67198
0.934999997727573 65746
0.939999997615814 64171
0.944999997504056 62288
0.949999997392297 60738.5
0.954999997280538 59195.5
0.959999997168779 57494
0.964999997057021 56666
0.969999996945262 54834.5
0.974999996833503 53273.5
0.979999996721745 52251
0.984999996609986 51090
0.989999996498227 49735.5
0.994999996386468 48316
0.99999999627471 47417
1.00499999616295 46301
1.00999999605119 45171
1.01499999593943 44072.5
1.01999999582767 43187
1.02499999571592 42278.5
1.02999999560416 41111
1.0349999954924 40383
1.03999999538064 39211.5
1.04499999526888 38332
1.04999999515712 37547
1.05499999504536 36820.5
1.05999999493361 35863
1.06499999482185 35036.5
1.06999999471009 34348.5
1.07499999459833 33701
1.07999999448657 32766.5
1.08499999437481 32188.5
1.08999999426305 31581.5
1.09499999415129 30781.5
1.09999999403954 30313.5
1.10499999392778 29575
1.10999999381602 28965
1.11499999370426 28380.5
1.1199999935925 28044
1.12499999348074 27300
1.12999999336898 26722
1.13499999325722 26146
1.13999999314547 25843
1.14499999303371 25335.5
1.14999999292195 24715.5
1.15499999281019 24152
1.15999999269843 23674
1.16499999258667 23138
1.16999999247491 23017
1.17499999236315 22404
1.1799999922514 22074
1.18499999213964 21446
1.18999999202788 21306.5
1.19499999191612 20696
1.19999999180436 20276
1.2049999916926 19910
1.20999999158084 19407
1.21499999146909 19238
1.21999999135733 18894.5
1.22499999124557 18556.5
1.22999999113381 17934.5
1.23499999102205 17937
1.23999999091029 17515
1.24499999079853 17152.5
1.24999999068677 16931
1.25499999057502 16555.5
1.25999999046326 16224
1.2649999903515 15988
1.26999999023974 15685.5
1.27499999012798 15464.5
1.27999999001622 15186
1.28499998990446 14818.5
1.2899999897927 14695
1.29499998968095 14332.5
1.29999998956919 14063.5
1.30499998945743 14009.5
1.30999998934567 13771.5
1.31499998923391 13430.5
1.31999998912215 13209.5
1.32499998901039 13021
1.32999998889863 12722.5
1.33499998878688 12621
1.33999998867512 12216.5
1.34499998856336 12162
1.3499999884516 11854.5
1.35499998833984 11795.5
1.35999998822808 11655
1.36499998811632 11387.5
1.36999998800457 11234
1.37499998789281 11095.5
1.37999998778105 10913.5
1.38499998766929 10710
1.38999998755753 10480
1.39499998744577 10159
1.39999998733401 10135
1.40499998722225 10100.5
1.4099999871105 9726.5
1.41499998699874 9579
1.41999998688698 9437.5
1.42499998677522 9419
1.42999998666346 9064.5
1.4349999865517 8935.5
1.43999998643994 8896
1.44499998632818 8831.5
1.44999998621643 8598
1.45499998610467 8432.5
1.45999998599291 8366.5
1.46499998588115 8157.5
1.46999998576939 8140
1.47499998565763 8009.5
1.47999998554587 7870.5
1.48499998543411 7711
1.48999998532236 7464.5
1.4949999852106 7471
1.49999998509884 7289
1.50499998498708 7238
1.50999998487532 7189.5
1.51499998476356 7045
1.5199999846518 6998.5
1.52499998454005 6856.5
1.52999998442829 6710.5
1.53499998431653 6582
1.53999998420477 6514.5
1.54499998409301 6453
1.54999998398125 6296.5
1.55499998386949 6278
1.55999998375773 6140.5
1.56499998364598 6071.5
1.56999998353422 5925
1.57499998342246 5938.5
1.5799999833107 5800
1.58499998319894 5699.5
1.58999998308718 5710.5
1.59499998297542 5542.5
1.59999998286366 5441.5
1.60499998275191 5419.5
1.60999998264015 5357
1.61499998252839 5248.5
1.61999998241663 5091.5
1.62499998230487 5146
1.62999998219311 5041
1.63499998208135 4938.5
1.63999998196959 4856
1.64499998185784 4748.5
1.64999998174608 4690.5
1.65499998163432 4623.5
1.65999998152256 4652
1.6649999814108 4443
1.66999998129904 4500.5
1.67499998118728 4453
1.67999998107553 4397
1.68499998096377 4362
1.68999998085201 4217
1.69499998074025 4184.5
1.69999998062849 4076.5
1.70499998051673 4103.5
1.70999998040497 3947.5
1.71499998029321 3961.5
1.71999998018146 3903.5
1.7249999800697 3891
1.72999997995794 3807.5
1.73499997984618 3761.5
1.73999997973442 3632
1.74499997962266 3615
1.7499999795109 3671.5
1.75499997939914 3527
1.75999997928739 3533.5
1.76499997917563 3465.5
1.76999997906387 3434
1.77499997895211 3428.5
1.77999997884035 3383.5
1.78499997872859 3254
1.78999997861683 3202
1.79499997850507 3170
1.79999997839332 3116
1.80499997828156 3101
1.8099999781698 3028
1.81499997805804 3089
1.81999997794628 2935
1.82499997783452 2960
1.82999997772276 2892
1.83499997761101 2879
1.83999997749925 2848.5
1.84499997738749 2714.5
1.84999997727573 2701.5
1.85499997716397 2657
1.85999997705221 2648
1.86499997694045 2679.5
1.86999997682869 2543.5
1.87499997671694 2611.5
1.87999997660518 2525
1.88499997649342 2510.5
1.88999997638166 2458.5
1.8949999762699 2357
1.89999997615814 2388.5
1.90499997604638 2413
1.90999997593462 2380
1.91499997582287 2357
1.91999997571111 2320.5
1.92499997559935 2303
1.92999997548759 2257.5
1.93499997537583 2220
1.93999997526407 2122.5
1.94499997515231 2190
1.94999997504056 2119
1.9549999749288 2154
1.95999997481704 2113.5
1.96499997470528 2103
1.96999997459352 2056
1.97499997448176 2005
1.97999997437 2003.5
1.98499997425824 1964.5
1.98999997414649 1938
1.99499997403473 1873.5
1.99999997392297 1878.5
2.00499997381121 1837
2.00999997369945 1760
2.01499997358769 1787.5
2.01999997347593 1824.5
2.02499997336417 1805.5
2.02999997325242 1783.5
2.03499997314066 1718
2.0399999730289 1652
2.04499997291714 1664.5
2.04999997280538 1603.5
2.05499997269362 1654
2.05999997258186 1588
2.0649999724701 1563
2.06999997235835 1549.5
2.07499997224659 1521
2.07999997213483 1506
2.08499997202307 1480.5
2.08999997191131 1434
2.09499997179955 1467
2.09999997168779 1432
2.10499997157604 1447.5
2.10999997146428 1437.5
2.11499997135252 1393
2.11999997124076 1384.5
2.124999971129 1379.5
2.12999997101724 1397.5
2.13499997090548 1278.5
2.13999997079372 1290.5
2.14499997068197 1316.5
2.14999997057021 1295.5
2.15499997045845 1298.5
2.15999997034669 1226
2.16499997023493 1201
2.16999997012317 1266.5
2.17499997001141 1219
2.17999996989965 1207
2.1849999697879 1183.5
2.18999996967614 1243
2.19499996956438 1165.5
2.19999996945262 1151
2.20499996934086 1145.5
2.2099999692291 1178
2.21499996911734 1139.5
2.21999996900558 1109.5
2.22499996889383 1120.5
2.22999996878207 1053
2.23499996867031 1072.5
2.23999996855855 1053.5
2.24499996844679 1043
2.24999996833503 1053
2.25499996822327 1040.5
2.25999996811152 961.5
2.26499996799976 993
2.269999967888 1001
2.27499996777624 971.5
2.27999996766448 962.5
2.28499996755272 909.5
2.28999996744096 927
2.2949999673292 894
2.29999996721745 928.5
2.30499996710569 888.5
2.30999996699393 881.5
2.31499996688217 869
2.31999996677041 821
2.32499996665865 843
2.32999996654689 790
2.33499996643513 808.5
2.33999996632338 837.5
2.34499996621162 808
2.34999996609986 810.5
2.3549999659881 815.5
2.35999996587634 714.5
2.36499996576458 772
2.36999996565282 770
2.37499996554106 761.5
2.37999996542931 768
2.38499996531755 740.5
2.38999996520579 758.5
2.39499996509403 732
2.39999996498227 710.5
2.40499996487051 730
2.40999996475875 724.5
2.414999964647 712.5
2.41999996453524 706
2.42499996442348 709
2.42999996431172 684
2.43499996419996 685
2.4399999640882 699
2.44499996397644 656
2.44999996386468 660
2.45499996375293 676.5
2.45999996364117 649.5
2.46499996352941 651.5
2.46999996341765 620.5
2.47499996330589 606
2.47999996319413 585
2.48499996308237 599
2.48999996297061 588
2.49499996285886 602
2.4999999627471 592.5
2.50499996263534 573
2.50999996252358 592
2.51499996241182 575
2.51999996230006 590
2.5249999621883 574
2.52999996207654 569
2.53499996196479 559
2.53999996185303 562
2.54499996174127 554.5
2.54999996162951 518.5
2.55499996151775 543
2.55999996140599 521.5
2.56499996129423 499
2.56999996118248 513.5
2.57499996107072 497.5
2.57999996095896 485.5
2.5849999608472 471.5
2.58999996073544 509
2.59499996062368 464
2.59999996051192 489.5
2.60499996040016 493.5
2.60999996028841 489
2.61499996017665 487.5
2.61999996006489 446.5
2.62499995995313 452
2.62999995984137 452.5
2.63499995972961 429
2.63999995961785 420.5
2.64499995950609 446
2.64999995939434 431
2.65499995928258 445
2.65999995917082 439
2.66499995905906 448.5
2.6699999589473 423.5
2.67499995883554 426.5
2.67999995872378 404.5
2.68499995861202 395.5
2.68999995850027 390
2.69499995838851 378.5
2.69999995827675 383
2.70499995816499 406
2.70999995805323 399.5
2.71499995794147 401
2.71999995782971 392
2.72499995771796 377
2.7299999576062 360
2.73499995749444 342.5
2.73999995738268 340.5
2.74499995727092 336
2.74999995715916 355
2.7549999570474 325.5
2.75999995693564 362
2.76499995682389 344
2.76999995671213 345.5
2.77499995660037 352.5
2.77999995648861 339.5
2.78499995637685 342
2.78999995626509 312.5
2.79499995615333 331.5
2.79999995604157 314
2.80499995592982 334
2.80999995581806 341.5
2.8149999557063 318
2.81999995559454 305.5
2.82499995548278 315
2.82999995537102 299
2.83499995525926 314
2.8399999551475 298
2.84499995503575 299.5
2.84999995492399 298.5
2.85499995481223 300
2.85999995470047 307
2.86499995458871 303.5
2.86999995447695 312.5
2.87499995436519 292
2.87999995425344 289.5
2.88499995414168 294
2.88999995402992 278
2.89499995391816 262.5
2.8999999538064 274
2.90499995369464 269
2.90999995358288 274.5
2.91499995347112 265
2.91999995335937 283.5
2.92499995324761 270
2.92999995313585 274.5
2.93499995302409 261
2.93999995291233 283
2.94499995280057 268
2.94999995268881 252
2.95499995257705 262
2.9599999524653 246.5
2.96499995235354 245.5
2.96999995224178 236.5
2.97499995213002 248.5
2.97999995201826 250.5
2.9849999519065 236
2.98999995179474 235.5
2.99499995168298 247
2.99999995157123 246
3.00499995145947 239
3.00999995134771 233
3.01499995123595 217.5
3.01999995112419 248
3.02499995101243 212
3.02999995090067 217
3.03499995078892 215
3.03999995067716 215.5
3.0449999505654 229
3.04999995045364 210.5
3.05499995034188 223
3.05999995023012 229
3.06499995011836 219
3.0699999500066 203
3.07499994989485 196
3.07999994978309 191
3.08499994967133 201
3.08999994955957 192
3.09499994944781 204.5
3.09999994933605 206
3.10499994922429 188
3.10999994911253 192.5
3.11499994900078 188
3.11999994888902 200.5
3.12499994877726 211.5
3.1299999486655 189
3.13499994855374 194
3.13999994844198 196.5
3.14499994833022 177
3.14999994821846 204.5
3.15499994810671 174.5
3.15999994799495 192.5
3.16499994788319 184
3.16999994777143 168.5
3.17499994765967 171.5
3.17999994754791 165.5
3.18499994743615 186.5
3.1899999473244 176
3.19499994721264 173.5
3.19999994710088 153
3.20499994698912 165.5
3.20999994687736 174
3.2149999467656 162.5
3.21999994665384 174
3.22499994654208 167
3.22999994643033 170
3.23499994631857 160.5
3.23999994620681 149.5
3.24499994609505 181.5
3.24999994598329 159.5
3.25499994587153 159.5
3.25999994575977 166.5
3.26499994564801 166.5
3.26999994553626 157.5
3.2749999454245 155
3.27999994531274 174.5
3.28499994520098 172
3.28999994508922 171
3.29499994497746 157
3.2999999448657 158
3.30499994475394 156
3.30999994464219 167.5
3.31499994453043 156.5
3.31999994441867 140
3.32499994430691 153.5
3.32999994419515 178.5
3.33499994408339 155
3.33999994397163 155
3.34499994385988 147.5
3.34999994374812 137.5
3.35499994363636 149
3.3599999435246 137.5
3.36499994341284 142.5
3.36999994330108 121
3.37499994318932 138
3.37999994307756 143
3.38499994296581 134
3.38999994285405 127
3.39499994274229 133.5
3.39999994263053 130.5
3.40499994251877 134.5
3.40999994240701 131.5
3.41499994229525 131.5
3.41999994218349 141.5
3.42499994207174 140
3.42999994195998 133.5
3.43499994184822 123.5
3.43999994173646 129.5
3.4449999416247 135.5
3.44999994151294 144
3.45499994140118 143
3.45999994128942 113
3.46499994117767 136
3.46999994106591 130.5
3.47499994095415 134
3.47999994084239 134
3.48499994073063 122.5
3.48999994061887 125.5
3.49499994050711 142
3.49999994039536 143.5
3.5049999402836 124
3.50999994017184 121.5
3.51499994006008 135.5
3.51999993994832 127.5
3.52499993983656 129.5
3.5299999397248 112.5
3.53499993961304 128
3.53999993950129 120
3.54499993938953 127.5
3.54999993927777 134.5
3.55499993916601 124.5
3.55999993905425 128
3.56499993894249 136
3.56999993883073 135
3.57499993871897 129
3.57999993860722 136.5
3.58499993849546 126
3.5899999383837 122.5
3.59499993827194 137.5
3.59999993816018 133.5
3.60499993804842 117
3.60999993793666 121.5
3.6149999378249 130
3.61999993771315 125.5
3.62499993760139 124.5
3.62999993748963 127
3.63499993737787 138.5
3.63999993726611 130
3.64499993715435 118
3.64999993704259 131.5
3.65499993693084 134.5
3.65999993681908 133
3.66499993670732 117
3.66999993659556 128
3.6749999364838 138
3.67999993637204 127.5
3.68499993626028 124
3.68999993614852 120.5
3.69499993603677 124.5
3.69999993592501 129
3.70499993581325 118.5
3.70999993570149 112
3.71499993558973 124
3.71999993547797 128
3.72499993536621 137
3.72999993525445 108
3.7349999351427 134.5
3.73999993503094 121.5
3.74499993491918 130
3.74999993480742 130.5
3.75499993469566 116
3.7599999345839 124.5
3.76499993447214 113.5
3.76999993436038 130
3.77499993424863 113.5
3.77999993413687 137
3.78499993402511 126.5
3.78999993391335 126.5
3.79499993380159 107.5
3.79999993368983 117
3.80499993357807 130.5
3.80999993346632 109
3.81499993335456 111
3.8199999332428 122
3.82499993313104 117.5
3.82999993301928 129
3.83499993290752 110.5
3.83999993279576 124.5
3.844999932684 114
3.84999993257225 109
3.85499993246049 120.5
3.85999993234873 110.5
3.86499993223697 116.5
3.86999993212521 119.5
3.87499993201345 134.5
3.87999993190169 106
3.88499993178993 109
3.88999993167818 127.5
3.89499993156642 118.5
3.89999993145466 134
3.9049999313429 122
3.90999993123114 129.5
3.91499993111938 114.5
3.91999993100762 124.5
3.92499993089587 121.5
3.92999993078411 129.5
3.93499993067235 130
3.93999993056059 120.5
3.94499993044883 117.5
3.94999993033707 124.5
3.95499993022531 118.5
3.95999993011355 121.5
3.9649999300018 132.5
3.96999992989004 125
3.97499992977828 105
3.97999992966652 127
3.98499992955476 114.5
3.989999929443 115
3.99499992933124 126
3.99999992921948 111
4.00499992910773 108.5
4.00999992899597 115
4.01499992888421 111
4.01999992877245 111
4.02499992866069 119.5
4.02999992854893 107
4.03499992843717 118
4.03999992832541 125.5
4.04499992821366 113.5
4.0499999281019 115
4.05499992799014 113
4.05999992787838 112.5
4.06499992776662 118
4.06999992765486 119
4.0749999275431 120
4.07999992743135 138
4.08499992731959 138.5
4.08999992720783 121.5
4.09499992709607 110.5
4.09999992698431 124
4.10499992687255 122
4.10999992676079 121
4.11499992664903 126
4.11999992653728 111.5
4.12499992642552 115.5
4.12999992631376 107
4.134999926202 120
4.13999992609024 108
4.14499992597848 118
4.14999992586672 119.5
4.15499992575496 115.5
4.15999992564321 103
4.16499992553145 123
4.16999992541969 112.5
4.17499992530793 131
4.17999992519617 121.5
4.18499992508441 117.5
4.18999992497265 118.5
4.19499992486089 124
4.19999992474914 132
4.20499992463738 128
4.20999992452562 127
4.21499992441386 119.5
4.2199999243021 150.5
4.22499992419034 124
4.22999992407858 142
4.23499992396683 146.5
4.23999992385507 122.5
4.24499992374331 135.5
4.24999992363155 141
4.25499992351979 143.5
4.25999992340803 129
4.26499992329627 127.5
4.26999992318451 137.5
4.27499992307276 133.5
4.279999922961 146
4.28499992284924 145
4.28999992273748 158
4.29499992262572 144.5
4.29999992251396 144
4.3049999224022 156.5
4.30999992229044 129.5
4.31499992217869 148.5
4.31999992206693 128.5
4.32499992195517 138
4.32999992184341 143.5
4.33499992173165 138.5
4.33999992161989 156.5
4.34499992150813 151
4.34999992139637 151.5
4.35499992128462 153.5
4.35999992117286 147.5
4.3649999210611 151
4.36999992094934 149
4.37499992083758 150.5
4.37999992072582 152.5
4.38499992061406 158
4.38999992050231 143.5
4.39499992039055 149.5
4.39999992027879 147
4.40499992016703 164.5
4.40999992005527 164.5
4.41499991994351 136
4.41999991983175 149.5
4.42499991971999 163.5
4.42999991960824 155.5
4.43499991949648 149
4.43999991938472 160.5
4.44499991927296 150
4.4499999191612 162
4.45499991904944 158
4.45999991893768 152.5
4.46499991882592 164
4.46999991871417 178.5
4.47499991860241 160
4.47999991849065 182
4.48499991837889 185
4.48999991826713 179
4.49499991815537 196.5
4.49999991804361 201.5
4.50499991793185 206
4.5099999178201 213
4.51499991770834 200.5
4.51999991759658 190
4.52499991748482 191
4.52999991737306 185.5
4.5349999172613 182
4.53999991714954 188.5
4.54499991703779 179
4.54999991692603 177
4.55499991681427 187
4.55999991670251 183
4.56499991659075 173.5
4.56999991647899 197.5
4.57499991636723 188
4.57999991625547 192.5
4.58499991614372 204
4.58999991603196 194
4.5949999159202 183.5
4.59999991580844 182
4.60499991569668 176
4.60999991558492 201.5
4.61499991547316 203
4.6199999153614 207.5
4.62499991524965 202.5
4.62999991513789 208
4.63499991502613 215
4.63999991491437 201
4.64499991480261 230.5
4.64999991469085 209.5
4.65499991457909 220.5
4.65999991446733 220.5
4.66499991435558 215.5
4.66999991424382 216
4.67499991413206 210
4.6799999140203 228.5
4.68499991390854 247.5
4.68999991379678 234.5
4.69499991368502 227
4.69999991357327 236.5
4.70499991346151 287
4.70999991334975 252.5
4.71499991323799 263.5
4.71999991312623 247.5
4.72499991301447 253
4.72999991290271 248
4.73499991279095 244.5
4.7399999126792 256.5
4.74499991256744 240.5
4.74999991245568 250.5
4.75499991234392 268
4.75999991223216 261
4.7649999121204 246.5
4.76999991200864 261
4.77499991189688 258
4.77999991178513 277
4.78499991167337 287
4.78999991156161 273
4.79499991144985 282
4.79999991133809 284.5
4.80499991122633 301.5
4.80999991111457 309
4.81499991100281 302.5
4.81999991089106 309.5
4.8249999107793 349.5
4.82999991066754 326.5
4.83499991055578 368.5
4.83999991044402 408
4.84499991033226 433
4.8499999102205 487.5
4.85499991010875 528.5
4.85999990999699 621
4.86499990988523 747
4.86999990977347 858.5
4.87499990966171 1013.5
4.87999990954995 1142
4.88499990943819 1169
4.88999990932643 1166
4.89499990921468 1123.5
4.89999990910292 1017
4.90499990899116 902.5
4.9099999088794 858
4.91499990876764 748.5
4.91999990865588 675.5
4.92499990854412 671
4.92999990843236 608.5
4.93499990832061 601
4.93999990820885 566.5
4.94499990809709 565
4.94999990798533 528
4.95499990787357 535.5
4.95999990776181 514
4.96499990765005 525
4.96999990753829 519.5
4.97499990742654 524
4.97999990731478 533
4.98499990720302 525
4.98999990709126 512.5
4.9949999069795 562.5
4.99999990686774 575.5
5.00499990675598 549.5
5.00999990664423 577
5.01499990653247 581.5
5.01999990642071 592.5
5.02499990630895 595.5
5.02999990619719 619
5.03499990608543 641
5.03999990597367 653.5
5.04499990586191 685.5
5.04999990575016 690.5
5.0549999056384 691
5.05999990552664 741
5.06499990541488 718.5
5.06999990530312 740.5
5.07499990519136 789
5.0799999050796 773.5
5.08499990496784 817.5
5.08999990485609 801.5
5.09499990474433 868
5.09999990463257 913
5.10499990452081 975.5
5.10999990440905 924.5
5.11499990429729 1027
5.11999990418553 1021.5
5.12499990407377 1123
5.12999990396202 1153
5.13499990385026 1211
5.1399999037385 1393
5.14499990362674 1466
5.14999990351498 1576.5
5.15499990340322 1780.5
5.15999990329146 1964.5
5.16499990317971 2154.5
5.16999990306795 2421
5.17499990295619 2606
5.17999990284443 2706.5
5.18499990273267 2785.5
5.18999990262091 2771
5.19499990250915 2648
5.19999990239739 2628.5
5.20499990228564 2476.5
5.20999990217388 2433
5.21499990206212 2475
5.21999990195036 2463
5.2249999018386 2528.5
5.22999990172684 2540.5
5.23499990161508 2573.5
5.23999990150332 2650
5.24499990139157 2589.5
5.24999990127981 2690.5
5.25499990116805 2787
5.25999990105629 2811
5.26499990094453 2962
5.26999990083277 3254
5.27499990072101 3562.5
5.27999990060925 4026.5
5.2849999004975 4698.5
5.28999990038574 5468
5.29499990027398 6095
5.29999990016222 6739.5
5.30499990005046 7453
5.3099998999387 7976
5.31499989982694 8830.5
5.31999989971519 10016
5.32499989960343 11419
5.32999989949167 13147
5.33499989937991 15572.5
5.33999989926815 18771.5
5.34499989915639 23231
5.34999989904463 29243.5
5.35499989893287 37658.5
5.35999989882112 49766
5.36499989870936 67781.5
5.3699998985976 92842
5.37499989848584 129364.5
5.37999989837408 177222
5.38499989826232 251222.71875
5.38999989815056 326846
5.3949998980388 409102.53125
5.39999989792705 475954.6875
5.40499989781529 527588.4375
5.40999989770353 545177.125
5.41499989759177 529920.625
5.41999989748001 486339.75
5.42499989736825 419960.78125
5.42999989725649 344827.59375
5.43499989714473 271422.4375
5.43999989703298 212238.65625
5.44499989692122 162432
5.44999989680946 129691
5.4549998966977 104738.5
5.45999989658594 86822
5.46499989647418 72643.5
5.46999989636242 60962.5
5.47499989625067 50703.5
5.47999989613891 42575.5
5.48499989602715 35952.5
5.48999989591539 30314.5
5.49499989580363 25482.5
5.49999989569187 21997.5
5.50499989558011 19301.5
5.50999989546835 16792.5
5.5149998953566 14701.5
5.51999989524484 13179
5.52499989513308 11862
5.52999989502132 10788.5
5.53499989490956 10001
5.5399998947978 9116
5.54499989468604 8178.5
5.54999989457428 7529.5
5.55499989446253 6604.5
5.55999989435077 5920.5
5.56499989423901 5340
5.56999989412725 4691
5.57499989401549 4187
5.57999989390373 3845
5.58499989379197 3432.5
5.58999989368021 3074.5
5.59499989356846 2904.5
5.5999998934567 2675
5.60499989334494 2365
5.60999989323318 2128.5
5.61499989312142 1949.5
5.61999989300966 1847.5
5.6249998928979 1685
5.62999989278615 1605.5
5.63499989267439 1485
5.63999989256263 1385.5
5.64499989245087 1273.5
5.64999989233911 1184
5.65499989222735 1111
5.65999989211559 1045.5
5.66499989200383 1003
5.66999989189208 968.5
5.67499989178032 881
5.67999989166856 819
5.6849998915568 794
5.68999989144504 763.5
5.69499989133328 729.5
5.69999989122152 696
5.70499989110976 629
5.70999989099801 617.5
5.71499989088625 596.5
5.71999989077449 537
5.72499989066273 530.5
5.72999989055097 489
5.73499989043921 498
5.73999989032745 463.5
5.74499989021569 440.5
5.74999989010394 411
5.75499988999218 419.5
5.75999988988042 377
5.76499988976866 354.5
5.7699998896569 346
5.77499988954514 326
5.77999988943338 335.5
5.78499988932163 329
5.78999988920987 302.5
5.79499988909811 299.5
5.79999988898635 276.5
5.80499988887459 292.5
5.80999988876283 258
5.81499988865107 270
5.81999988853931 260.5
5.82499988842756 245.5
5.8299998883158 237
5.83499988820404 238.5
5.83999988809228 242.5
5.84499988798052 224
5.84999988786876 218
5.854999887757 204
5.85999988764524 192.5
5.86499988753349 190
5.86999988742173 198.5
5.87499988730997 190.5
5.87999988719821 183
5.88499988708645 174
5.88999988697469 171
5.89499988686293 166.5
5.89999988675117 158.5
5.90499988663942 163
5.90999988652766 149.5
5.9149998864159 145
5.91999988630414 137
5.92499988619238 122
5.92999988608062 129.5
5.93499988596886 113.5
5.93999988585711 128.5
5.94499988574535 121.5
5.94999988563359 119
5.95499988552183 112
5.95999988541007 113
5.96499988529831 100.5
5.96999988518655 102
5.97499988507479 86
5.97999988496304 92
5.98499988485128 95
5.98999988473952 87.5
5.99499988462776 90
5.999999884516 93
6.00499988440424 87
6.00999988429248 80
6.01499988418072 90
6.01999988406897 76.5
6.02499988395721 74.5
6.02999988384545 72
6.03499988373369 89.5
6.03999988362193 59
6.04499988351017 78
6.04999988339841 72.5
6.05499988328665 55.5
6.0599998831749 75.5
6.06499988306314 71
6.06999988295138 69
6.07499988283962 60.5
6.07999988272786 61
6.0849998826161 59
6.08999988250434 48
6.09499988239259 55.5
6.09999988228083 53
6.10499988216907 52
6.10999988205731 61.5
6.11499988194555 52
6.11999988183379 45
6.12499988172203 49
6.12999988161027 58.5
6.13499988149852 47
6.13999988138676 48
6.144999881275 46.5
6.14999988116324 38.5
6.15499988105148 49
6.15999988093972 38.5
6.16499988082796 44.5
6.1699998807162 50
6.17499988060445 46
6.17999988049269 38.5
6.18499988038093 39
6.18999988026917 34.5
6.19499988015741 41
6.19999988004565 43
6.20499987993389 36.5
6.20999987982214 43
6.21499987971038 39.5
6.21999987959862 29.5
6.22499987948686 35.5
6.2299998793751 34.5
6.23499987926334 34.5
6.23999987915158 41
6.24499987903982 35
6.24999987892807 36
6.25499987881631 36
6.25999987870455 35.5
6.26499987859279 31.5
6.26999987848103 39
6.27499987836927 34
6.27999987825751 34.5
6.28499987814575 32.5
6.289999878034 23.5
6.29499987792224 32.5
6.29999987781048 28
6.30499987769872 28
6.30999987758696 30.5
6.3149998774752 31
6.31999987736344 25.5
6.32499987725168 31.5
6.32999987713993 29
6.33499987702817 27
6.33999987691641 31
6.34499987680465 22.5
6.34999987669289 31.5
6.35499987658113 24
6.35999987646937 18.5
6.36499987635762 24.5
6.36999987624586 22.5
6.3749998761341 25.5
6.37999987602234 20
6.38499987591058 22
6.38999987579882 25.5
6.39499987568706 22
6.3999998755753 17
6.40499987546355 18.5
6.40999987535179 21
6.41499987524003 19.5
6.41999987512827 18.5
6.42499987501651 31
6.42999987490475 20
6.43499987479299 21.5
6.43999987468123 17.5
6.44499987456948 23.5
6.44999987445772 16
6.45499987434596 20
6.4599998742342 22.5
6.46499987412244 18
6.46999987401068 16
6.47499987389892 20
6.47999987378716 17
6.48499987367541 23
6.48999987356365 18
6.49499987345189 15
6.49999987334013 12.5
6.50499987322837 11
6.50999987311661 19
6.51499987300485 14
6.5199998728931 14
6.52499987278134 17.5
6.52999987266958 13
6.53499987255782 21
6.53999987244606 15
6.5449998723343 15
6.54999987222254 20
6.55499987211078 15
6.55999987199903 15.5
6.56499987188727 15
6.56999987177551 16.5
6.57499987166375 17
6.57999987155199 15.5
6.58499987144023 12
6.58999987132847 16
6.59499987121671 12.5
6.59999987110496 10
6.6049998709932 11.5
6.60999987088144 11.5
6.61499987076968 10
6.61999987065792 11.5
6.62499987054616 18
6.6299998704344 15.5
6.63499987032264 13
6.63999987021089 7
6.64499987009913 16.5
6.64999986998737 11
6.65499986987561 15.5
6.65999986976385 6.5
6.66499986965209 11.5
6.66999986954033 13
6.67499986942858 9.5
6.67999986931682 12.5
6.68499986920506 9
6.6899998690933 12.5
6.69499986898154 11.5
6.69999986886978 11.5
6.70499986875802 13.5
6.70999986864626 9.5
6.71499986853451 13
6.71999986842275 12
6.72499986831099 16.5
6.72999986819923 10.5
6.73499986808747 12.5
6.73999986797571 12.5
6.74499986786395 10
6.74999986775219 11
6.75499986764044 11.5
6.75999986752868 11.5
6.76499986741692 11.5
6.76999986730516 8.5
6.7749998671934 14.5
6.77999986708164 16
6.78499986696988 12.5
6.78999986685812 9.5
6.79499986674637 9
6.79999986663461 14
6.80499986652285 10.5
6.80999986641109 16.5
6.81499986629933 15.5
6.81999986618757 9
6.82499986607581 9
6.82999986596406 13
6.8349998658523 14.5
6.83999986574054 7
6.84499986562878 12
6.84999986551702 6
6.85499986540526 8.5
6.8599998652935 11.5
6.86499986518174 8
6.86999986506999 10
6.87499986495823 10.5
6.87999986484647 7
6.88499986473471 13
6.88999986462295 8.5
6.89499986451119 9
6.89999986439943 8
6.90499986428767 6
6.90999986417592 9
6.91499986406416 6
6.9199998639524 7
6.92499986384064 8
6.92999986372888 4
6.93499986361712 8
6.93999986350536 7
6.9449998633936 7.5
6.94999986328185 8
6.95499986317009 7
6.95999986305833 10
6.96499986294657 5.5
6.96999986283481 10
6.97499986272305 5
6.97999986261129 8.5
6.98499986249954 8.5
6.98999986238778 6.5
6.99499986227602 8
6.99999986216426 7.5
